,t,pos_t_err,neg_t_err,flux,pos_flux_err,neg_flux_err
0,100.211,0.318,-0.264,8.40808820665736e-09,1.06810455779666e-09,-1.09869392817718e-09
1,100.775,0.325,-0.246,8.40378652589817e-09,1.09338293603707e-09,-1.12148964894943e-09
2,101.401,0.313,-0.301,7.89712438796249e-09,1.01287648303063e-09,-1.03808936969961e-09
3,101.975,0.292,-0.261,8.9315982658935e-09,1.11284679354663e-09,-1.1377090809488e-09
4,102.519,0.285,-0.252,8.91534105142631e-09,1.15295230514025e-09,-1.17484311568722e-09
5,103.061,0.286,-0.256,9.00261225891675e-09,1.13320620704529e-09,-1.15433595569644e-09
6,103.686,0.285,-0.339,7.74079833498999e-09,9.87375188262662e-10,-1.00566392967755e-09
7,104.294,0.32,-0.323,7.64333061887791e-09,9.63135355197138e-10,-9.82356439822746e-10
8,104.977,0.3,-0.363,7.62175551034926e-09,9.44678062244227e-10,-9.59533359643442e-10
9,105.557,0.298,-0.28,8.69477109620974e-09,1.10545609103225e-09,-1.12124445828457e-09
10,106.171,0.337,-0.316,7.69142420108002e-09,9.5751632764579e-10,-9.70943065901125e-10
11,106.85,0.34,-0.341,6.96999867477057e-09,8.61930807929246e-10,-8.72828567608463e-10
12,107.514,0.327,-0.325,7.25166125916961e-09,8.97001558611933e-10,-9.08671816585262e-10
13,108.151,0.274,-0.31,7.99449583052235e-09,1.00219356474044e-09,-1.01542562507401e-09
14,108.789,0.34,-0.364,6.60051235685939e-09,8.27701057281323e-10,-8.38981779695731e-10
15,109.444,0.306,-0.315,7.45944139939325e-09,9.34897283993371e-10,-9.46934448306134e-10
16,110.091,0.285,-0.341,7.52983980237124e-09,9.42779604895934e-10,-9.53629314662618e-10
17,110.644,0.245,-0.267,9.62193645893528e-09,1.2041611131491e-09,-1.21724813924084e-09
18,111.173,0.342,-0.284,7.7810729868667e-09,9.99306973393269e-10,-1.00903986268373e-09
19,111.816,0.34,-0.301,7.43978547480081e-09,9.17558532734582e-10,-9.25801693091769e-10
20,112.42,0.293,-0.264,5.8602156423942e-09,8.83633941442962e-10,-8.89004094804213e-10
21,113.044,0.305,-0.332,7.33508606800817e-09,9.16356517467012e-10,-9.24133927374847e-10
22,113.643,0.238,-0.294,5.93479414417356e-09,8.89868776725075e-10,-8.94615385060642e-10
23,114.158,0.247,-0.276,6.00092317413987e-09,8.9998303801168e-10,-9.05045621083209e-10
24,114.734,0.404,-0.329,6.29581734075514e-09,7.85928597801772e-10,-7.9181801472869e-10
25,115.42,0.291,-0.282,5.46500009389976e-09,8.19344308846239e-10,-8.23605971518296e-10
26,116.036,0.356,-0.326,6.63781983242249e-09,8.50759251310525e-10,-8.56744245220559e-10
27,116.736,0.385,-0.345,6.39712654854236e-09,7.87696246315201e-10,-7.93119356705747e-10
28,117.375,0.287,-0.254,5.76708758728165e-09,8.63932489889682e-10,-8.67537245362649e-10
29,117.919,0.264,-0.257,5.98080971743504e-09,8.95697197622846e-10,-8.99130856489086e-10
30,118.541,0.252,-0.358,5.03031830126347e-09,7.68259805301684e-10,-7.71034635536194e-10
31,119.061,0.273,-0.268,5.58993578833367e-09,8.70919643252642e-10,-8.74035928001558e-10
32,119.619,0.324,-0.285,7.4873999506211e-09,9.45491768916101e-10,-9.50441943347347e-10
33,120.27,0.288,-0.327,5.00827734759585e-09,7.65088712932808e-10,-7.68086153604798e-10
34,120.902,0.325,-0.344,6.91890655893912e-09,8.67284407601999e-10,-8.7223322028755e-10
35,121.519,0.341,-0.292,7.0953345468499e-09,9.08136638383961e-10,-9.12953602059277e-10
36,122.135,0.333,-0.274,5.08707053819644e-09,7.77277071949692e-10,-7.80507280338015e-10
37,122.778,0.253,-0.311,5.54949310408189e-09,8.47852373206251e-10,-8.5127803439611e-10
38,123.424,0.358,-0.393,6.33982524981761e-09,7.80235298662781e-10,-7.85103940811968e-10
39,124.128,0.345,-0.346,6.08399671171619e-09,8.02510289282405e-10,-8.07124732685754e-10
40,124.832,0.334,-0.36,6.8086149036901e-09,8.38228677310624e-10,-8.43829758506461e-10
41,125.471,0.257,-0.305,5.53916565861652e-09,8.46671207042406e-10,-8.50588983126977e-10
42,126.052,0.317,-0.323,7.2449789101052e-09,9.04001353037714e-10,-9.1024310422273e-10
43,126.739,0.384,-0.37,6.19978836640401e-09,7.67065822092219e-10,-7.71518204498885e-10
44,127.342,0.306,-0.219,5.95226427295133e-09,8.91392115847545e-10,-8.94774708922572e-10
45,128.007,0.313,-0.359,6.88520115502566e-09,8.58166086082728e-10,-8.62933314127372e-10
46,128.608,0.283,-0.288,5.50374039536676e-09,8.24191934250797e-10,-8.2728410536012e-10
47,129.205,0.293,-0.314,5.17112731502029e-09,7.74815188095633e-10,-7.78246243836355e-10
48,129.768,0.248,-0.27,6.03975134534753e-09,9.04845728202318e-10,-9.08702994635404e-10
49,130.315,0.338,-0.299,4.67068885042074e-09,7.42576007641346e-10,-7.45310409703481e-10
50,130.946,0.229,-0.293,5.92226222874451e-09,9.04764873419724e-10,-9.08371517036688e-10
51,131.507,0.315,-0.333,4.94224832883759e-09,7.40248255495038e-10,-7.43191297939951e-10
52,132.041,0.334,-0.219,5.86988330009269e-09,8.79076450079733e-10,-8.8243625171928e-10
53,132.671,0.29,-0.295,5.46375914710795e-09,8.18490671765442e-10,-8.2190359971991e-10
54,133.266,0.312,-0.306,5.10570673556506e-09,7.64736483599729e-10,-7.67786134199101e-10
55,133.901,0.289,-0.323,7.6062919339153e-09,9.3597368751006e-10,-9.41664427664911e-10
56,134.549,0.382,-0.359,6.26115509515481e-09,7.70421637942218e-10,-7.75069835843798e-10
57,135.308,0.432,-0.378,5.95609372883609e-09,7.32796793459821e-10,-7.37114215122768e-10
58,136.067,0.328,-0.327,7.64841321479912e-09,9.41878077223267e-10,-9.48498724865512e-10
59,136.715,0.315,-0.321,4.96262076970286e-09,7.73563279142327e-10,-7.76797707585641e-10
60,137.31,0.271,-0.28,6.08530549643032e-09,8.83089516596207e-10,-8.87197977292692e-10
61,137.893,0.336,-0.312,7.10129197034583e-09,8.85569862559556e-10,-8.91056797837817e-10
62,138.527,0.278,-0.299,5.42481935963225e-09,8.12914274422403e-10,-8.16622186555509e-10
63,139.12,0.409,-0.315,4.32850561370031e-09,6.48947913954233e-10,-6.52314324888944e-10
64,139.868,0.337,-0.339,4.69443509890374e-09,7.03963228147407e-10,-7.07817128345736e-10
65,140.462,0.282,-0.257,5.98995091228256e-09,9.05496744799473e-10,-9.10057375726755e-10
66,141.092,0.314,-0.348,4.83895124647137e-09,7.2528698338442e-10,-7.28806223791159e-10
67,141.67,0.312,-0.264,5.54307437736572e-09,8.31139699422983e-10,-8.35583363191552e-10
68,142.256,0.255,-0.274,5.92229428307423e-09,9.06239560229626e-10,-9.11764297111007e-10
69,142.873,0.322,-0.362,4.59466900502499e-09,6.89432631053194e-10,-6.93783989093386e-10
70,143.47,0.318,-0.274,5.73857367410841e-09,8.46642662554825e-10,-8.51838206623159e-10
71,144.079,0.332,-0.291,5.00783221551294e-09,7.66053733351364e-10,-7.70381999207768e-10
72,144.761,0.369,-0.35,4.43019732934949e-09,6.64947540523991e-10,-6.69407825325948e-10
73,145.406,0.279,-0.276,5.67472374762903e-09,8.69216571376564e-10,-8.75699144688114e-10
74,145.97,0.27,-0.285,5.69496360835996e-09,8.72171897738493e-10,-8.78475746329041e-10
75,146.56,0.317,-0.32,7.45615706900779e-09,9.20466628428324e-10,-9.29936073453427e-10
76,147.138,0.276,-0.261,5.8912747113279e-09,8.84204736473634e-10,-8.90076866931376e-10
77,147.705,0.277,-0.291,5.56618183918649e-09,8.35386056146204e-10,-8.40898226013528e-10
78,148.279,0.271,-0.297,5.42592030918184e-09,8.46948958563867e-10,-8.52030237168133e-10
79,148.791,0.306,-0.242,5.81909479811435e-09,8.73159112998063e-10,-8.78668920936477e-10
80,149.399,0.335,-0.302,4.90979993699984e-09,7.81632949974632e-10,-7.85861760459795e-10
81,150.099,0.34,-0.365,4.62595946832333e-09,6.94751746600171e-10,-6.99991273936652e-10
82,150.792,0.353,-0.353,4.39388959706977e-09,7.00201011182235e-10,-7.04948083438453e-10
83,151.483,0.367,-0.338,4.5259471665652e-09,6.93066528484114e-10,-6.97974802046857e-10
84,152.104,0.35,-0.255,5.61257640093545e-09,8.24916778450009e-10,-8.31200546939133e-10
85,152.755,0.331,-0.301,5.28525022007657e-09,7.85435345912308e-10,-7.91783947400265e-10
86,153.352,0.298,-0.266,5.79938414966959e-09,8.71570741027515e-10,-8.78958593833143e-10
87,153.966,0.294,-0.316,5.34326755399801e-09,8.02739705930648e-10,-8.09151628451047e-10
88,154.552,0.347,-0.292,5.01491835968868e-09,7.68398401434003e-10,-7.74470629496703e-10
89,155.162,0.315,-0.263,5.73785971819122e-09,8.52870564756881e-10,-8.60005051210787e-10
90,155.742,0.289,-0.265,5.85786201250206e-09,8.80281782330174e-10,-8.87635087989581e-10
91,156.431,0.352,-0.4,4.18386724332217e-09,6.5379504342645e-10,-6.58713350498367e-10
92,157.156,0.346,-0.373,4.63823133476302e-09,6.90040971826718e-10,-6.96668322562232e-10
93,157.901,0.433,-0.399,3.87601654069428e-09,5.94433759653431e-10,-5.99880806607162e-10
94,158.707,0.307,-0.373,4.80271530177569e-09,7.22225197997853e-10,-7.28957563956375e-10
95,159.383,0.368,-0.369,4.34990971065778e-09,6.66966745681085e-10,-6.72878710712665e-10
96,160.129,0.408,-0.378,4.10990033291059e-09,6.18105096672237e-10,-6.23955619501998e-10
97,160.86,0.302,-0.323,5.20840024712991e-09,7.8313815983195e-10,-7.90309318394189e-10
98,161.506,0.318,-0.344,4.79515145482489e-09,7.49896337312336e-10,-7.56340014231511e-10
99,162.388,0.515,-0.565,3.00295465536406e-09,4.51917546839682e-10,-4.56592854161372e-10
100,163.314,0.338,-0.411,4.29153292558953e-09,6.45862362861029e-10,-6.52581273338757e-10
101,164.001,0.363,-0.349,4.54037352744645e-09,6.83061617752746e-10,-6.89823576653949e-10
102,164.709,0.292,-0.345,4.89265383409496e-09,7.81067649614822e-10,-7.882757409451e-10
103,165.348,0.345,-0.347,4.70051925666992e-09,7.07868667164685e-10,-7.15848779010514e-10
104,166.039,0.282,-0.346,5.136882598401e-09,7.7398488758412e-10,-7.83246763047627e-10
105,166.742,0.351,-0.421,4.0959756521847e-09,6.29170357115081e-10,-6.36300741474456e-10
106,167.53,0.456,-0.437,3.59039434019436e-09,5.40985677467405e-10,-5.47478937676995e-10
107,168.408,0.402,-0.422,3.8897704031844e-09,5.85977571255285e-10,-5.9285578483137e-10
108,169.253,0.411,-0.443,3.75668759183428e-09,5.65945499378882e-10,-5.72609369409466e-10
109,170.071,0.361,-0.407,4.18357360156175e-09,6.30412806414646e-10,-6.38039743204912e-10
110,171.025,0.532,-0.593,2.98040910764246e-09,4.44832502111471e-10,-4.51012874543511e-10
111,171.864,0.299,-0.307,5.56977478973757e-09,8.313695551673e-10,-8.43008720346682e-10
112,172.512,0.339,-0.348,4.56182092244987e-09,7.29834394005985e-10,-7.38674496355461e-10
113,173.134,0.282,-0.284,5.74450862935402e-09,8.67318505074872e-10,-8.79978719167779e-10
114,173.872,0.377,-0.455,3.86730505651725e-09,5.95280346461434e-10,-6.03611792269802e-10
115,174.543,0.259,-0.294,5.86676293618506e-09,9.03240046693945e-10,-9.16118076995219e-10
116,175.101,0.341,-0.299,5.16716762871093e-09,7.80756964978216e-10,-7.92884999411755e-10
117,175.736,0.307,-0.294,5.51809820532881e-09,8.33280184685094e-10,-8.45622803419229e-10
118,176.522,0.388,-0.478,3.72850497648828e-09,5.84809855862632e-10,-5.92139906310383e-10
119,177.309,0.34,-0.399,4.39587267386477e-09,6.7595984616544e-10,-6.84566112376218e-10
120,178.113,0.319,-0.464,4.16308282728101e-09,6.27605106052665e-10,-6.35569749972273e-10
121,178.939,0.484,-0.507,3.27517515653641e-09,4.93951684952627e-10,-5.00480872552438e-10
122,179.773,0.342,-0.35,4.61756732355706e-09,7.10049106305916e-10,-7.19078979974653e-10
123,180.5,0.392,-0.385,4.18038423395992e-09,6.30207459388125e-10,-6.38196983821984e-10
124,181.353,0.43,-0.461,3.5728825056252e-09,5.60428705141205e-10,-5.67491760413794e-10
125,182.139,0.263,-0.356,5.33132985300453e-09,8.03502584228214e-10,-8.1339832239615e-10
126,182.865,0.384,-0.463,3.84455866451911e-09,5.91069436395921e-10,-5.98444014349382e-10
127,183.691,0.287,-0.442,4.46950935836345e-09,6.87758711239169e-10,-6.97111013399013e-10
128,184.352,0.385,-0.373,4.37047139799774e-09,6.60136585856287e-10,-6.70105654208342e-10
129,185.154,0.373,-0.417,4.19757105225093e-09,6.34365060493453e-10,-6.44351659751249e-10
130,185.893,0.414,-0.367,4.18434518567067e-09,6.4529961315389e-10,-6.55766989874518e-10
131,186.632,0.359,-0.324,4.77980782418097e-09,7.36952857209303e-10,-7.48706158145728e-10
132,187.495,0.414,-0.504,3.59951749893567e-09,5.44393463345866e-10,-5.53437261122888e-10
133,188.317,0.441,-0.408,3.86461865602351e-09,5.85027172435273e-10,-5.95321584841592e-10
134,189.103,0.335,-0.345,4.72444255408916e-09,7.29322842764287e-10,-7.41950399119546e-10
135,189.851,0.31,-0.414,4.5036837729495e-09,6.80921535983569e-10,-6.9197902030678e-10
136,190.638,0.372,-0.477,3.84524139705777e-09,5.82228443154662e-10,-5.9263599913311e-10
137,191.498,0.538,-0.488,3.08330170493282e-09,4.84776402822929e-10,-4.92252000692501e-10
138,192.476,0.418,-0.44,3.6359191535151e-09,5.82350758806688e-10,-5.9020961365772e-10
139,193.257,0.454,-0.363,4.03370518928317e-09,6.09376659831483e-10,-6.18707730255146e-10
140,194.103,0.424,-0.392,4.03564520704843e-09,6.21881889883076e-10,-6.3141386150332e-10
141,194.905,0.325,-0.378,4.74814883422406e-09,7.32552845655703e-10,-7.44753805871468e-10
142,195.682,0.398,-0.452,3.99287830211646e-09,6.04221996245886e-10,-6.14622177454694e-10
143,196.516,0.401,-0.435,4.01169802783651e-09,6.19630538276715e-10,-6.30712361273759e-10
144,197.343,0.371,-0.426,4.15746555313092e-09,6.42174780050954e-10,-6.53688070153303e-10
145,198.168,0.384,-0.454,3.94791515090938e-09,5.97545273514229e-10,-6.07981835606165e-10
146,198.984,0.469,-0.433,3.52871408887556e-09,5.55498044155615e-10,-5.64817408496444e-10
147,199.983,0.487,-0.529,3.17617168498149e-09,4.90484238372202e-10,-4.99156285918855e-10
148,200.887,0.452,-0.418,3.70346864763377e-09,5.71057507015239e-10,-5.80199074797655e-10
149,201.844,0.424,-0.504,3.51489657544794e-09,5.31919857437323e-10,-5.41108345491279e-10
150,202.677,0.475,-0.409,3.69727747993994e-09,5.59530789320823e-10,-5.69219955686521e-10
151,203.599,0.467,-0.446,3.55165259719045e-09,5.47800495183494e-10,-5.56765980659081e-10
152,204.357,0.302,-0.292,5.57067498907082e-09,8.43523459360607e-10,-8.58650306309338e-10
153,205.142,0.466,-0.483,3.49733404010566e-09,5.29955773795845e-10,-5.39852969381954e-10
154,205.987,0.43,-0.38,4.07277077922973e-09,6.16741620276185e-10,-6.27834962562743e-10
155,206.83,0.497,-0.412,3.49841092053636e-09,5.50252621243153e-10,-5.58985025519351e-10
156,207.816,0.579,-0.49,2.97021701924863e-09,4.76738930307576e-10,-4.84296295530028e-10
157,208.873,0.427,-0.477,3.7463776097203e-09,5.68125724554613e-10,-5.79165365576227e-10
158,209.708,0.378,-0.408,4.25592400533772e-09,6.569893450847e-10,-6.68335878040679e-10
159,210.668,0.473,-0.583,3.16563436089767e-09,4.79337006286517e-10,-4.87908101837237e-10
160,211.621,0.511,-0.48,3.31414681692439e-09,5.02178624162113e-10,-5.11534764050142e-10
161,212.79,0.552,-0.658,2.70862614372075e-09,4.1011838978848e-10,-4.17441748663234e-10
162,213.896,0.504,-0.555,3.09948363617203e-09,4.68849640027247e-10,-4.76730039585962e-10
163,214.95,0.481,-0.55,3.21328131093805e-09,4.85499111524239e-10,-4.9301016478697e-10
164,215.731,0.306,-0.301,5.50547699824698e-09,8.3147263836813e-10,-8.43905143764081e-10
165,216.421,0.384,-0.384,4.32601674444827e-09,6.66378889631228e-10,-6.76296666182019e-10
166,217.184,0.438,-0.379,4.20482098155187e-09,6.37697051294899e-10,-6.50141443195685e-10
167,218.027,0.516,-0.405,3.62865488520195e-09,5.8355686358903e-10,-5.93988886809742e-10
168,218.974,0.6,-0.43,3.27102517769285e-09,5.05917998047804e-10,-5.15641397395053e-10
169,219.979,0.33,-0.405,4.46025727673909e-09,6.89019678980523e-10,-7.01445356088142e-10
170,220.82,0.46,-0.512,3.345393077941e-09,5.16751018071225e-10,-5.26027962966096e-10
171,221.658,0.436,-0.378,4.04747087625259e-09,6.13108943303818e-10,-6.24336006006349e-10
172,222.509,0.367,-0.414,4.22153182217177e-09,6.39013784354335e-10,-6.50234251077227e-10
173,223.428,0.553,-0.552,2.97890151404927e-09,4.50706473895176e-10,-4.58390995741471e-10
174,224.482,0.534,-0.501,3.23826028230444e-09,4.84286662684526e-10,-4.92186628399178e-10
175,225.451,0.41,-0.435,3.87582324696864e-09,5.96688955335003e-10,-6.05159264610807e-10
176,226.351,0.553,-0.489,3.14014032279712e-09,4.9405137967778e-10,-5.0205545562825e-10
177,227.424,0.545,-0.52,3.09382208408691e-09,4.86980766833301e-10,-4.95102988628986e-10
178,228.555,0.514,-0.585,3.02778929235406e-09,4.58754846794048e-10,-4.67274671285787e-10
179,229.492,0.403,-0.423,3.84791675379498e-09,6.06328588135286e-10,-6.17111118431923e-10
180,230.519,0.525,-0.625,2.83612692380327e-09,4.29839589129072e-10,-4.37946876449732e-10
181,231.518,0.524,-0.474,3.33864654516273e-09,5.00317291869604e-10,-5.09609285568078e-10
182,232.456,0.488,-0.414,3.56266567577959e-09,5.49407783281401e-10,-5.58299938214746e-10
183,233.407,0.65,-0.463,2.93214778705835e-09,4.43858317496269e-10,-4.51673243437645e-10
184,234.907,0.701,-0.849,2.10591049128105e-09,3.24989407426072e-10,-3.30500902752025e-10
185,236.057,0.397,-0.45,4.03973525726745e-09,6.11694266663101e-10,-6.22646328898998e-10
186,236.975,0.47,-0.521,3.437522025943e-09,5.40671768400677e-10,-5.49247876328783e-10
187,237.81,0.333,-0.364,4.97550808465343e-09,7.53694227537697e-10,-7.6748884769861e-10
188,238.539,0.402,-0.397,4.17787192969443e-09,6.45504909037938e-10,-6.57258010508809e-10
189,239.532,0.482,-0.591,3.03358381492024e-09,4.6862230480301e-10,-4.77070521117428e-10
190,240.441,0.438,-0.427,3.78947632576914e-09,5.85449398158337e-10,-5.96063796538479e-10
191,241.377,0.605,-0.498,3.0360612947598e-09,4.60530459488183e-10,-4.69602538699444e-10
192,242.663,0.65,-0.681,2.46021747582789e-09,3.80017911289692e-10,-3.868260532608e-10
193,243.839,0.655,-0.527,2.74059661826719e-09,4.23159829396706e-10,-4.30581646842964e-10
194,245.196,0.51,-0.702,2.66316900814415e-09,4.11395412124356e-10,-4.18805407572531e-10
195,246.317,0.678,-0.611,2.56280995839925e-09,3.8826370779852e-10,-3.95425279014915e-10
196,247.549,0.432,-0.553,3.37563430052214e-09,5.10729116028876e-10,-5.19433080762252e-10
197,248.551,0.427,-0.57,3.32173587035239e-09,5.02569111451256e-10,-5.11128248943535e-10
198,249.52,0.421,-0.543,3.41447364976009e-09,5.17012855189228e-10,-5.2626750277112e-10
199,250.402,0.579,-0.46,3.15544135045525e-09,4.77314267111757e-10,-4.85329272830394e-10
200,251.431,0.484,-0.45,3.44097376370005e-09,5.2954471620792e-10,-5.36819675277902e-10
201,252.57,0.63,-0.655,2.54734547119113e-09,3.8514493338699e-10,-3.91375597362213e-10
202,253.792,0.551,-0.593,2.88412983433333e-09,4.36993365222384e-10,-4.45113646657083e-10
203,254.758,0.674,-0.415,3.04063850132912e-09,4.60277178941487e-10,-4.68375076516742e-10
204,256.031,0.461,-0.599,3.09215428146326e-09,4.68786203341817e-10,-4.7777408970476e-10
205,257.181,0.621,-0.689,2.48419426842284e-09,3.76225155771602e-10,-3.83033758647796e-10
206,258.42,0.567,-0.618,2.77923833403333e-09,4.20447602945487e-10,-4.27556015820843e-10
207,259.455,0.657,-0.468,2.91857768873858e-09,4.50475588299747e-10,-4.58193114261909e-10
208,260.684,0.557,-0.572,2.93973214936681e-09,4.44940549290589e-10,-4.52698616330566e-10
209,261.701,0.503,-0.46,3.43181912782183e-09,5.23747072528424e-10,-5.32811179889931e-10
210,262.647,0.487,-0.443,3.43994432179734e-09,5.30504375465446e-10,-5.39115416551825e-10
211,263.633,0.43,-0.499,3.44969866999196e-09,5.3211844795907e-10,-5.40864768107086e-10
212,264.789,0.71,-0.726,2.26712749140604e-09,3.43087713838002e-10,-3.49014324569448e-10
213,266.245,0.803,-0.747,2.06722475095666e-09,3.18653245734453e-10,-3.2365068143709e-10
214,267.791,0.666,-0.743,2.27117642620062e-09,3.50470728829853e-10,-3.56390489988172e-10
215,269.007,0.588,-0.55,2.81171689030428e-09,4.33995338564842e-10,-4.41450794183946e-10
216,269.996,0.372,-0.4,4.14779032402521e-09,6.3936873871095e-10,-6.49408507515564e-10
217,270.96,0.568,-0.592,2.80726635395704e-09,4.2496130414326e-10,-4.32449766106223e-10
218,272.016,0.532,-0.488,3.10750449224621e-09,4.88944172948794e-10,-4.96894701644533e-10
219,272.957,0.489,-0.41,3.6366937698819e-09,5.50783448936302e-10,-5.60773952232076e-10
220,274.113,0.461,-0.667,2.91347021383307e-09,4.45387042490097e-10,-4.53855199503808e-10
221,275.053,0.56,-0.479,3.0892284037386e-09,4.7756403903828e-10,-4.86505818859594e-10
222,276.237,0.402,-0.625,3.13504635058722e-09,4.83958695305146e-10,-4.92335100286402e-10
223,277.06,0.409,-0.421,3.88634567961683e-09,6.00364315556795e-10,-6.11195704618825e-10
224,277.883,0.475,-0.414,3.69894635474892e-09,5.60726044303097e-10,-5.71416047811045e-10
225,278.921,0.643,-0.563,2.71334255293489e-09,4.18817313727995e-10,-4.26019860811977e-10
226,280.168,0.576,-0.604,2.85454659502945e-09,4.36127362405436e-10,-4.44178752281398e-10
