,t,pos_t_err,neg_t_err,flux,pos_flux_err,neg_flux_err
0,256.057,2.363,-2.368,5.69340263284758e-10,8.70531753254931e-11,-8.928301996766e-11
1,260.841,2.386,-2.422,5.59405117586147e-10,9.06520078475854e-11,-9.28902128349903e-11
2,265.612,2.967,-2.386,4.90979867017209e-10,7.93169982615028e-11,-8.12605838259597e-11
3,270.441,2.135,-1.861,4.38084937827523e-10,8.61406944254075e-11,-8.75624091802187e-11
4,274.759,2.086,-2.184,4.03700449602837e-10,7.72792323377351e-11,-7.86639811717092e-11
5,279.082,1.683,-2.236,4.41364051970052e-10,8.95056341350265e-11,-9.10004519987224e-11
6,282.533,2.265,-1.768,4.64715737340031e-10,9.23607307107165e-11,-9.38999836536351e-11
7,286.699,2.448,-1.9,4.91555120713914e-10,8.95909539794185e-11,-9.13272781478284e-11
8,291.775,2.847,-2.629,3.36504552681994e-10,6.62258367825627e-11,-6.73459255314136e-11
9,296.64,2.039,-2.017,5.0445503412175e-10,9.0884423901189e-11,-9.26128329250558e-11
10,301.329,3.261,-2.65,3.11138801490343e-10,6.13152316851236e-11,-6.23848369285623e-11
11,306.913,2.56,-2.324,3.8719816478773e-10,7.19784158081042e-11,-7.32739770593975e-11
12,311.579,1.762,-2.106,4.69462642599389e-10,8.73092197297624e-11,-8.88995426776323e-11
13,315.817,1.665,-2.477,4.20812452682753e-10,7.8420211882913e-11,-7.99206289166754e-11
14,320.182,3.231,-2.699,2.78595220258278e-10,5.47927199673817e-11,-5.57011974072891e-11
15,325.026,2.696,-1.613,4.20558002648848e-10,7.81915166575757e-11,-7.96021275218265e-11
16,331.385,3.482,-3.663,2.85435705904e-10,5.30278039986073e-11,-5.39629408868262e-11
17,336.832,2.192,-1.966,5.07113497910016e-10,9.69111738220977e-11,-9.85685828053317e-11
18,341.371,2.311,-2.347,4.58755640003927e-10,8.79635923171382e-11,-8.95984325413071e-11
19,345.759,2.309,-2.077,4.88745672765563e-10,9.11643266348465e-11,-9.29379876781325e-11
20,350.484,2.46,-2.417,3.88147124499933e-10,7.87142659141291e-11,-8.00277802771178e-11
21,354.919,1.889,-1.975,4.91795056668479e-10,9.16020479439851e-11,-9.33302015215309e-11
22,358.848,2.86,-2.04,4.9133323196012e-10,8.35759070404322e-11,-8.54990692920856e-11
23,364.116,3.282,-2.407,3.47443684432874e-10,6.46361590673322e-11,-6.58211230612077e-11
24,369.698,2.212,-2.3,4.25145798175479e-10,7.89401983483448e-11,-8.03070754011509e-11
25,374.995,2.315,-3.085,3.28078021923325e-10,6.1068269405237e-11,-6.22044168706419e-11
26,379.575,2.738,-2.265,3.23760723722113e-10,6.19359202204175e-11,-6.30276237835078e-11
27,384.325,2.826,-2.013,3.96384965648203e-10,7.15358451311059e-11,-7.31052440535272e-11
28,389.708,2.647,-2.557,3.6083787550606e-10,6.71707853320434e-11,-6.84222818815073e-11
29,395.233,1.939,-2.877,4.01887414099168e-10,7.68784233875846e-11,-7.82335816570574e-11
30,399.128,1.954,-1.956,4.85511565183521e-10,9.03443905268874e-11,-9.20167216422964e-11
31,403.508,2.392,-2.426,3.76795931925714e-10,6.99734467709456e-11,-7.11933570933905e-11
32,408.732,2.306,-2.832,3.47367139602146e-10,6.82610600891115e-11,-6.93664743467368e-11
33,413.929,3.32,-2.891,2.8806670398466e-10,5.83718176146399e-11,-5.93295342924564e-11
34,420.076,2.224,-2.827,3.88588645548647e-10,7.2443788906514e-11,-7.3843650316421e-11
35,426.199,2.733,-3.9,2.79232155300535e-10,5.49918706513273e-11,-5.59395837918313e-11
36,452.161,18.534,-16.569,2.29328444896276e-10,5.17265587825211e-11,-5.17265587825211e-11
37,490.948,14.848,-20.254,2.57739805909283e-10,5.6710322845658e-11,-5.6710322845658e-11
38,525.935,14.964,-20.138,2.70442296276326e-10,5.97034409389474e-11,-5.97034409389474e-11
39,555.219,18.276,-14.32,2.90420787361598e-10,6.51653864897598e-11,-6.51653864897598e-11
40,589.706,16.383,-16.212,2.84152068843854e-10,6.25218114220552e-11,-6.25218114220552e-11
41,633.256,17.965,-27.167,1.90363938407403e-10,4.18856540714663e-11,-4.18856540714663e-11
42,663.076,15.726,-11.855,2.92675543901586e-10,6.58999911785249e-11,-6.58999911785249e-11
43,710.822,30.663,-32.02,1.33034114080028e-10,3.00067197117264e-11,-3.00067197117264e-11
44,763.942,27.689,-22.458,1.81440166342795e-10,3.99221616368098e-11,-3.99221616368098e-11
45,819.333,32.473,-27.702,1.48489772149497e-10,3.3551354729951e-11,-3.3551354729951e-11
46,871.384,15.525,-19.577,2.77322914577851e-10,6.09180328115238e-11,-6.09180328115238e-11
47,909.001,18.025,-22.092,2.28911818856414e-10,5.16325907625018e-11,-5.16325907625018e-11
48,968.774,35.979,-41.748,1.12976931067509e-10,2.53941251997401e-11,-2.53941251997401e-11
49,1047.127,27.83,-42.375,1.19808479946252e-10,2.69296739404675e-11,-2.69296739404675e-11
50,1120.012,32.672,-45.054,1.05645601436372e-10,2.39124533894269e-11,-2.39124533894269e-11
51,1175.977,19.332,-23.292,2.02103281372868e-10,4.4175298866057e-11,-4.4175298866057e-11
52,1226.909,28.576,-31.6,1.34120837740756e-10,3.01467000907071e-11,-3.01467000907071e-11
53,1292.712,45.515,-37.227,9.69145640686136e-11,2.18597173016544e-11,-2.18597173016544e-11
54,1373.158,30.258,-34.932,1.22417141211143e-10,2.76119903832113e-11,-2.76119903832113e-11
55,1454.835,71.432,-51.419,1.04248234806661e-10,1.86096323326716e-11,-1.86096323326716e-11
56,4909.339,23.967,-26.18,2.6036731676908e-11,5.8379060925467e-12,-5.8379060925467e-12
57,4968.758,22.216,-35.453,2.28326669972384e-11,5.11949629279972e-12,-5.11949629279972e-12
58,5031.275,37.425,-40.301,1.65179770331206e-11,3.69353238120526e-12,-3.69353238120526e-12
59,5097.136,24.218,-28.435,2.36872533750328e-11,5.31110877770813e-12,-5.31110877770813e-12
60,5168.441,35.654,-47.087,1.50338768644168e-11,3.38474395758417e-12,-3.38474395758417e-12
61,5241.015,35.793,-36.919,1.70509679158311e-11,3.7256623562125e-12,-3.7256623562125e-12
62,5307.742,31.748,-30.934,1.81467164019834e-11,4.07997316993877e-12,-4.07997316993877e-12
63,5379.063,35.646,-39.573,1.54184448013724e-11,3.47132599519661e-12,-3.47132599519661e-12
64,5461.025,41.441,-46.315,1.32754963287165e-11,2.98476385421359e-12,-2.98476385421359e-12
65,5540.092,32.578,-37.627,1.78109011049186e-11,3.89677464572335e-12,-3.89677464572335e-12
66,5608.651,29.21,-35.98,2.0780358130495e-11,4.44139366663519e-12,-4.44139366663519e-12
67,5669.811,23.211,-31.95,2.31061376158164e-11,5.18790062814264e-12,-5.18790062814264e-12
68,5726.728,26.469,-33.707,2.31707676113005e-11,4.95229866999042e-12,-4.95229866999042e-12
69,5780.377,27.981,-27.18,2.20478314690177e-11,4.94352364071515e-12,-4.94352364071515e-12
70,5843.687,32.368,-35.329,1.70034677190263e-11,3.83344004472255e-12,-3.83344004472255e-12
71,5900.737,22.958,-24.681,2.96962391627471e-11,6.65809386509752e-12,-6.65809386509752e-12
72,5984.63,49.387,-60.935,1.98619373581987e-11,4.47719762806196e-12,-4.47719762806196e-12
73,6086.502,52.822,-52.486,2.16452036764767e-11,4.75975255238766e-12,-4.75975255238766e-12
74,6177.51,39.54,-38.186,1.52048410851896e-11,3.4185432738669e-12,-3.4185432738669e-12
75,6251.606,45.679,-34.555,1.50210539280492e-11,3.36339404241455e-12,-3.36339404241455e-12
76,6343.615,46.441,-46.33,1.41896743161998e-11,3.11666971437885e-12,-3.11666971437885e-12
77,6429.755,35.52,-39.7,1.89718073456888e-11,3.9700115592915e-12,-3.9700115592915e-12
78,6489.826,33.117,-24.551,2.11832273138265e-11,4.74317942360497e-12,-4.74317942360497e-12
79,6553.254,32.372,-30.311,1.91045184430085e-11,4.28357800710012e-12,-4.28357800710012e-12
80,6628.962,41.913,-43.336,1.36754269496424e-11,3.0746809848773e-12,-3.0746809848773e-12
81,6697.811,25.718,-26.936,2.16849165022939e-11,4.86214825952971e-12,-4.86214825952971e-12
82,6746.316,39.895,-22.788,1.7947847093096e-11,4.02973879888607e-12,-4.02973879888607e-12
83,6817.659,31.236,-31.447,1.83140504506395e-11,4.11196081424098e-12,-4.11196081424098e-12
84,6885.469,36.138,-36.574,1.60820424250184e-11,3.60096269630125e-12,-3.60096269630125e-12
85,6957.815,31.49,-36.208,1.765499490568e-11,3.94777693338641e-12,-3.94777693338641e-12
86,7026.876,50.184,-37.572,1.36665202917105e-11,3.08536286923823e-12,-3.08536286923823e-12
87,7117.918,34.363,-40.857,1.71963291298285e-11,3.76231419557001e-12,-3.76231419557001e-12
88,7194.842,45.195,-42.562,1.42451515254748e-11,3.18966040545173e-12,-3.18966040545173e-12
89,7296.207,41.607,-56.17,1.65607142074321e-11,3.27529419916484e-12,-3.27529419916484e-12
90,10671.654,34.114,-58.656,1.25319682938421e-11,2.74311643424606e-12,-2.74311643424606e-12
91,10749.741,36.261,-43.973,1.3492831113176e-11,3.02683955830162e-12,-3.02683955830162e-12
92,10830.354,48.419,-44.351,1.13980434327844e-11,2.55279220756349e-12,-2.55279220756349e-12
93,10932.127,54.46,-53.354,9.52666944534527e-12,2.1405722774891e-12,-2.1405722774891e-12
94,11038.838,35.505,-52.251,1.21402584922535e-11,2.72782501979412e-12,-2.72782501979412e-12
95,11114.31,50.297,-39.966,1.21470868032189e-11,2.72494953746245e-12,-2.72494953746245e-12
96,11190.795,33.987,-26.188,1.81592880734939e-11,4.08025689048473e-12,-4.08025689048473e-12
97,11270.748,61.849,-45.966,9.75132384286275e-12,2.18750894211643e-12,-2.18750894211643e-12
98,11376.701,36.13,-44.104,1.24516452098434e-11,2.80232661692894e-12,-2.80232661692894e-12
99,11455.937,34.621,-43.106,1.27522178252182e-11,2.85608297961488e-12,-2.85608297961488e-12
100,11543.552,44.791,-52.994,9.90692282410185e-12,2.23324008507174e-12,-2.23324008507174e-12
101,11654.035,42.123,-65.692,9.30974110583495e-12,2.04409428075046e-12,-2.04409428075046e-12
102,11751.775,64.734,-55.617,8.5380042658102e-12,1.92778539863886e-12,-1.92778539863886e-12
103,11858.095,36.141,-41.586,1.52345941496168e-11,3.33469254423978e-12,-3.33469254423978e-12
104,11938.582,43.409,-44.347,1.31785759365689e-11,2.95157325411519e-12,-2.95157325411519e-12
105,12041.491,58.345,-59.499,9.07915913975907e-12,2.0433260049837e-12,-2.0433260049837e-12
106,12147.192,40.4,-47.356,1.14007630398835e-11,2.55340110943935e-12,-2.55340110943935e-12
107,12238.575,44.295,-50.983,1.03760051769062e-11,2.3314109760554e-12,-2.3314109760554e-12
108,12315.449,35.119,-32.578,1.48827984526215e-11,3.33865082729898e-12,-3.33865082729898e-12
109,12397.918,42.913,-47.351,1.11557780077518e-11,2.50661982805183e-12,-2.50661982805183e-12
110,12523.357,77.943,-82.526,6.44164500908232e-12,1.4544510157282e-12,-1.4544510157282e-12
111,12646.528,45.036,-45.228,1.17848464222635e-11,2.64796708957019e-12,-2.64796708957019e-12
112,12724.146,37.623,-32.582,1.51975112972101e-11,3.41476721490462e-12,-3.41476721490462e-12
113,12849.336,62.871,-87.568,7.10711285061553e-12,1.6047056846337e-12,-1.6047056846337e-12
114,12947.048,40.378,-34.841,1.43843427172819e-11,3.22162684168682e-12,-3.22162684168682e-12
115,13045.172,67.603,-57.745,8.5496019489298e-12,1.9241456452525e-12,-1.9241456452525e-12
116,16463.723,81.323,-96.696,6.02621005808229e-12,1.36419554268545e-12,-1.36419554268545e-12
117,16634.392,53.571,-89.346,7.62144401174825e-12,1.71352746807911e-12,-1.71352746807911e-12
118,16752.477,60.851,-64.514,9.18407189908143e-12,2.05922138872415e-12,-2.05922138872415e-12
119,16890.778,55.438,-77.449,9.14433680012539e-12,2.04473546567615e-12,-2.04473546567615e-12
120,17058.041,101.297,-111.825,5.78537784619742e-12,1.30967629930575e-12,-1.30967629930575e-12
121,17239.538,67.731,-80.2,8.3327279242952e-12,1.87344445216536e-12,-1.87344445216536e-12
122,17398.573,84.209,-91.303,6.88839520534846e-12,1.55296223742148e-12,-1.55296223742148e-12
123,17584.993,115.925,-102.212,5.29190933816735e-12,1.19303991505651e-12,-1.19303991505651e-12
124,17800.478,85.982,-99.56,5.94824012885574e-12,1.33187842717087e-12,-1.33187842717087e-12
125,17998.635,95.933,-112.175,5.37459618006155e-12,1.18978051925799e-12,-1.18978051925799e-12
126,18163.234,66.729,-68.667,8.42285752185923e-12,1.84279170036875e-12,-1.84279170036875e-12
127,18345.222,75.297,-115.259,5.72040783816898e-12,1.29141391305641e-12,-1.29141391305641e-12
128,18515.963,92.605,-95.444,5.85576339414124e-12,1.32197057545803e-12,-1.32197057545803e-12
129,18713.368,172.429,-104.8,5.97909825975611e-12,1.22743264364435e-12,-1.22743264364435e-12
130,22209.977,84.924,-123.183,4.13071695153881e-12,1.07870294443705e-12,-1.07870294443705e-12
131,22418.2,102.359,-123.299,5.0759131139948e-12,1.14370928210526e-12,-1.14370928210526e-12
132,22610.342,93.251,-89.783,4.47755932558582e-12,1.16133646854861e-12,-1.16133646854861e-12
133,22789.182,54.82,-85.589,7.37600959690568e-12,1.66196903409988e-12,-1.66196903409988e-12
134,22915.761,131.334,-71.758,4.9475993296926e-12,1.11765252854364e-12,-1.11765252854364e-12
135,23118.898,66.1,-71.803,7.44359341663492e-12,1.67008471885764e-12,-1.67008471885764e-12
136,23334.088,91.611,-149.091,3.20246284295544e-12,8.34394918386358e-13,-8.34394918386358e-13
137,23533.563,107.766,-107.864,4.9186042801939e-12,1.10356434591638e-12,-1.10356434591638e-12
138,23769.378,80.058,-128.049,3.85691689235013e-12,1.003770428522e-12,-1.003770428522e-12
139,23927.999,142.082,-78.562,3.64572121824795e-12,9.45583780621942e-13,-9.45583780621942e-13
140,24315.9,340.77,-245.819,2.64708300505543e-12,5.0979202892722e-13,-5.0979202892722e-13
141,28106.18,115.313,-150.462,2.85952472905396e-12,7.43436420506002e-13,-7.43436420506002e-13
142,28322.033,85.001,-100.54,4.37014076034395e-12,1.09819680533386e-12,-1.09819680533386e-12
143,28511.541,76.02,-104.507,5.57636323782273e-12,1.25467455070729e-12,-1.25467455070729e-12
144,28676.136,101.981,-88.575,5.2365008172551e-12,1.18188487499636e-12,-1.18188487499636e-12
145,28879.555,141.771,-101.438,3.03737917272554e-12,7.96288894473154e-13,-7.96288894473154e-13
146,29130.514,78.861,-109.188,3.93414639396184e-12,1.02424056532854e-12,-1.02424056532854e-12
147,29326.39,78.555,-117.015,3.78947742952914e-12,9.83849181482601e-13,-9.83849181482601e-13
148,29500.174,87.806,-95.228,5.38971013630932e-12,1.21267785766011e-12,-1.21267785766011e-12
149,29709.357,81.715,-121.377,3.66044281260019e-12,9.45122441978015e-13,-9.45122441978015e-13
150,29878.013,111.138,-86.941,3.71960405868649e-12,9.68385264611006e-13,-9.68385264611006e-13
151,30239.15,208.824,-250.0,2.46998917130569e-12,5.22523736912076e-13,-5.22523736912076e-13
152,33916.546,224.281,-204.47,1.84701963185507e-12,4.83193236556088e-13,-4.83193236556088e-13
153,34221.509,162.526,-80.683,3.51069166912014e-12,8.57381472692813e-13,-8.57381472692813e-13
154,34523.93,105.822,-139.895,3.12356628599673e-12,8.14995429528771e-13,-8.14995429528771e-13
155,34725.216,130.194,-95.464,3.45082756721885e-12,9.01570370027272e-13,-9.01570370027272e-13
156,34977.764,133.392,-122.354,3.17828397690478e-12,8.27094755997969e-13,-8.27094755997969e-13
157,35245.906,73.358,-134.749,4.07983859308915e-12,1.06450424103871e-12,-1.06450424103871e-12
158,35456.116,143.967,-136.853,3.11292534831778e-12,8.13289295086349e-13,-8.13289295086349e-13
159,35702.233,108.464,-102.15,4.13230304837728e-12,1.08246780021725e-12,-1.08246780021725e-12
160,35988.852,245.948,-178.154,3.26229534992302e-12,7.27458986640701e-13,-7.27458986640701e-13
161,39741.856,173.278,-210.341,2.30046462515964e-12,5.97412598127072e-13,-5.97412598127072e-13
162,40441.321,263.617,-526.187,1.18154664413746e-12,3.00791576941887e-13,-3.00791576941887e-13
163,40901.118,167.381,-196.18,2.40379010685396e-12,6.23844756248333e-13,-6.23844756248333e-13
164,41543.066,452.413,-474.567,1.82822760356082e-12,3.50298490411696e-13,-3.50298490411696e-13
165,45609.076,199.954,-311.537,1.83647491475436e-12,4.80194728907585e-13,-4.80194728907585e-13
166,46011.04,174.087,-202.01,2.53910509183351e-12,6.61292813000928e-13,-6.61292813000928e-13
167,46462.65,176.301,-277.523,2.23448584276601e-12,5.80580512911111e-13,-5.80580512911111e-13
168,46934.853,170.46,-295.901,2.04438972820636e-12,5.34135920972093e-13,-5.34135920972093e-13
169,47502.002,290.312,-396.69,2.19537452791906e-12,4.53457566314475e-13,-4.53457566314475e-13
170,51343.408,270.627,-318.592,1.38282192352071e-12,3.62203269784254e-13,-3.62203269784254e-13
171,51771.52,148.407,-157.485,2.62071089531931e-12,6.82989760953709e-13,-6.82989760953709e-13
172,52257.568,274.144,-337.641,1.27785130654336e-12,3.33503404432309e-13,-3.33503404432309e-13
173,53021.386,538.97,-489.674,1.44400781398705e-12,2.86728282309288e-13,-2.86728282309288e-13
174,57072.941,302.529,-274.153,1.56034413954466e-12,4.06806179512532e-13,-4.06806179512532e-13
175,57740.365,342.168,-364.895,1.2739917607998e-12,3.34243962586824e-13,-3.34243962586824e-13
176,58713.77,627.43,-631.237,1.35075870728122e-12,2.59584252112398e-13,-2.59584252112398e-13
177,63659.871,1080.599,-1080.693,8.98285323829529e-13,1.94041566924594e-13,-1.94041566924594e-13
178,98579.16,488.983,-512.269,1.08290627719763e-12,2.84839754953747e-13,-2.84839754953747e-13
179,114162.741,13766.358,-10276.193,3.7835225618598e-13,7.35115478368928e-14,-7.35115478368928e-14
180,154506.084,14641.892,-10179.532,2.7970970432391e-13,6.01502058315026e-14,-6.01502058315026e-14
181,198317.607,11090.004,-18848.583,1.99084881189195e-13,5.14368027170809e-14,-5.14368027170809e-14
182,237275.945,29191.531,-23474.631,1.6107991382451e-13,4.3321013057766e-14,-4.3321013057766e-14
183,317144.829,36083.388,-28252.921,1.03844365096994e-13,2.64933217560956e-14,-2.64933217560956e-14
184,377236.111,22371.56,-18307.246,1.51513649196989e-13,3.53504179036965e-14,-3.53504179036965e-14
185,509983.921,57983.428,-58404.241,8.83307362510243e-14,2.34608481309515e-14,-2.34608481309515e-14
186,648285.087,137903.259,-69833.037,4.26727947803319e-14,1.17420242989481e-14,-1.17420242989481e-14
187,986756.075,263269.534,-183318.139,1.78746367489326e-14,6.67675717167604e-15,-5.54186150923868e-15
