,t,pos_t_err,neg_t_err,flux,pos_flux_err,neg_flux_err
0,86.365,1.834,-2.049,1.101623815742e-09,1.90189650943418e-10,-1.72590441534219e-10
1,90.642,2.227,-2.443,9.20166333113708e-10,1.60450965183923e-10,-1.53083906432531e-10
2,95.121,1.578,-2.253,1.00967042495935e-09,1.6925901753238e-10,-1.68210462613193e-10
3,98.294,1.329,-1.594,1.28136064201427e-09,2.02114069439539e-10,-2.01365650443996e-10
4,101.674,1.737,-2.051,9.88537854949881e-10,1.52564300661672e-10,-1.52379552690166e-10
5,105.431,2.311,-2.021,7.94969172479812e-10,1.28642816832897e-10,-1.28584812882367e-10
6,109.193,1.514,-1.45,1.13631939532755e-09,1.78930198618157e-10,-1.78799274082583e-10
7,112.538,1.525,-1.832,1.01489832657235e-09,1.59381925090322e-10,-1.59235872769413e-10
8,115.623,1.605,-1.56,1.09370291421579e-09,1.67922898802798e-10,-1.67747880246801e-10
9,118.863,1.721,-1.634,1.034092904567e-09,1.55148225377519e-10,-1.54973501681391e-10
10,122.557,1.403,-1.973,1.02705458874739e-09,1.55445559974212e-10,-1.5527783820269e-10
11,125.565,1.748,-1.604,1.02798882441692e-09,1.54005455465252e-10,-1.53841244256505e-10
12,129.533,2.177,-2.221,7.53701334271117e-10,1.15272948458124e-10,-1.15158439150301e-10
13,133.56,1.883,-1.849,8.75313474827452e-10,1.36709904889731e-10,-1.36583627382665e-10
14,137.489,1.753,-2.046,8.74176267429382e-10,1.33627322420169e-10,-1.33502558503564e-10
15,141.212,2.23,-1.97,8.18319385970686e-10,1.22477957340541e-10,-1.22358976342281e-10
16,145.572,2.062,-2.13,8.26212717640463e-10,1.26255268760138e-10,-1.26142674485958e-10
17,150.12,1.921,-2.486,7.50844089870469e-10,1.17259427186585e-10,-1.17152586679788e-10
18,154.349,2.049,-2.308,7.34772481734406e-10,1.17250990493088e-10,-1.17147015493013e-10
19,158.377,2.609,-1.979,7.3479420928077e-10,1.12352684747056e-10,-1.12244074913779e-10
20,162.915,1.992,-1.929,8.66122967484187e-10,1.3248408555555e-10,-1.32350899847135e-10
21,166.564,1.825,-1.657,6.081175721036e-10,1.22691447756217e-10,-1.2261892982807e-10
22,170.405,1.744,-2.016,9.10643658513308e-10,1.39394484324363e-10,-1.39247588575207e-10
23,174.779,2.059,-2.631,7.42140538100655e-10,1.16047169365705e-10,-1.15929407897103e-10
24,179.213,1.854,-2.375,8.67609228531966e-10,1.30107148534658e-10,-1.29961522059501e-10
25,183.309,1.604,-2.242,9.18392054530908e-10,1.37788475000861e-10,-1.37632854918664e-10
26,187.204,2.027,-2.29,7.91626719931325e-10,1.18812518565806e-10,-1.18678061078675e-10
27,191.235,2.196,-2.004,6.61880605291771e-10,1.09450812657451e-10,-1.09348930834576e-10
28,195.829,2.117,-2.397,7.58900973225514e-10,1.14003485776616e-10,-1.13875874433495e-10
29,199.986,1.412,-2.041,6.51066963819388e-10,1.23307264739584e-10,-1.23220142558433e-10
30,203.318,2.052,-1.919,8.6871321537491e-10,1.30508990436957e-10,-1.30363007603469e-10
31,207.492,2.133,-2.122,7.83529341872755e-10,1.22819376045132e-10,-1.22694916345441e-10
32,211.968,2.868,-2.343,6.24576605464433e-10,9.91521370047216e-11,-9.90567740670359e-11
33,216.642,1.931,-1.805,9.26065515698856e-10,1.39255072142896e-10,-1.39104170894184e-10
34,220.696,1.619,-2.124,6.19248651594739e-10,1.13738839916834e-10,-1.13657153089749e-10
35,224.168,1.615,-1.852,6.73976289747731e-10,1.23790088078016e-10,-1.23701118659778e-10
36,227.917,1.836,-2.133,8.81780266185062e-10,1.32627433178589e-10,-1.32485136936507e-10
37,231.988,1.634,-2.235,5.85738652271588e-10,1.11021712196756e-10,-1.10946350860553e-10
38,235.577,2.904,-1.955,6.98631209687081e-10,1.07267826338226e-10,-1.07156106615541e-10
39,240.673,2.39,-2.192,7.49160567850357e-10,1.12627111397491e-10,-1.12503863682154e-10
40,244.836,1.721,-1.774,9.80100543045886e-10,1.47426368380057e-10,-1.47268756235013e-10
41,248.989,1.958,-2.433,4.94512490091414e-10,9.67667418875623e-11,-9.67044922201052e-11
42,253.037,2.463,-2.09,7.49761430570871e-10,1.12728699225903e-10,-1.12605831549879e-10
43,257.71,2.467,-2.21,7.29990189260576e-10,1.09764796499479e-10,-1.09645569990812e-10
44,262.139,1.842,-1.962,8.68645775888412e-10,1.36140832355938e-10,-1.36002102406266e-10
45,266.366,1.746,-2.385,5.49166066197223e-10,1.00813911413933e-10,-1.00739242834725e-10
46,270.387,1.865,-2.275,8.2073606258016e-10,1.23308379141212e-10,-1.23170684077273e-10
47,274.036,1.873,-1.783,6.04628903871953e-10,1.14517200623545e-10,-1.14436426872444e-10
48,278.098,2.531,-2.189,4.68283981725996e-10,8.86883607543115e-11,-8.86256945860368e-11
49,282.95,2.404,-2.321,7.02926881321616e-10,1.1018874923726e-10,-1.10077204799219e-10
50,286.826,2.226,-1.473,6.67636079079342e-10,1.1873481206937e-10,-1.18641863748237e-10
51,291.005,1.535,-1.953,6.72741417867568e-10,1.23439229149568e-10,-1.23346188147447e-10
52,294.267,1.813,-1.727,6.68860135579676e-10,1.24490937048357e-10,-1.24399515805521e-10
53,298.823,2.373,-2.743,4.53616522566903e-10,8.32376447338434e-11,-8.31750079428522e-11
54,303.283,2.261,-2.087,7.79771114023826e-10,1.19739536955194e-10,-1.19615444454547e-10
55,308.414,2.043,-2.869,4.52742786659482e-10,8.85848789657352e-11,-8.85275025148796e-11
56,312.74,2.571,-2.283,7.34552382226518e-10,1.10416880494576e-10,-1.10295445199973e-10
57,317.208,2.061,-1.898,5.91252363993581e-10,1.12024965934389e-10,-1.1194720134481e-10
58,321.226,1.64,-1.957,6.60744394626324e-10,1.21264503585847e-10,-1.21173752786011e-10
59,324.738,2.608,-1.872,7.91943768680374e-10,1.19046230865429e-10,-1.18915418289165e-10
60,328.896,2.826,-1.55,6.34697643336397e-10,1.10558345937355e-10,-1.10466788867672e-10
61,333.811,2.23,-2.088,5.10072428309216e-10,9.97609739033858e-11,-9.96951968297844e-11
62,338.121,2.151,-2.08,5.30052705383326e-10,1.00432137265663e-10,-1.0036248574342e-10
63,342.166,2.538,-1.894,5.19666049707482e-10,9.5370397533472e-11,-9.52989244537349e-11
64,346.827,1.495,-2.124,6.41924492906227e-10,1.17792464066032e-10,-1.17703816242166e-10
65,350.242,2.142,-1.92,6.71145526925895e-10,1.14121380164046e-10,-1.14021450567395e-10
66,354.499,1.847,-2.115,5.93839937489486e-10,1.08984951020927e-10,-1.08903273376187e-10
67,358.474,2.578,-2.128,5.03308913758609e-10,9.23651997037765e-11,-9.22958962389184e-11
68,363.177,1.762,-2.125,5.95699206745631e-10,1.1283884719784e-10,-1.12759482965886e-10
69,367.501,2.778,-2.562,4.30551577367071e-10,8.15970241408139e-11,-8.15411424451037e-11
70,372.98,2.847,-2.702,4.09496351447303e-10,7.75739955941524e-11,-7.75196451539326e-11
71,377.832,2.082,-2.005,5.67943647418646e-10,1.04234849952219e-10,-1.04156765151545e-10
72,382.122,2.519,-2.208,4.90263818608746e-10,8.998244651942e-11,-8.99151547187127e-11
73,387.12,1.942,-2.479,4.97312081974465e-10,9.72556976606202e-11,-9.71912513138023e-11
74,391.93,2.599,-2.868,4.10091377410754e-10,7.76737343983896e-11,-7.76189738225676e-11
75,397.704,2.864,-3.174,3.69417751451341e-10,6.9966985686682e-11,-6.99175719876365e-11
76,402.467,1.568,-1.899,6.62469993150156e-10,1.21572636511205e-10,-1.21481332146824e-10
77,406.5,2.225,-2.465,4.81321601953539e-10,9.1160275217876e-11,-9.10959386278365e-11
78,410.537,1.648,-1.812,6.71979667741079e-10,1.23333752280726e-10,-1.23241579018097e-10
79,414.438,2.336,-2.252,4.86440620106261e-10,9.5174199138639e-11,-9.51124281611714e-11
80,419.935,2.906,-3.161,3.90579717570797e-10,7.1689368749003e-11,-7.16358340175261e-11
81,424.72,1.702,-1.879,6.63768308254454e-10,1.21816455998852e-10,-1.21725076015729e-10
82,428.334,2.398,-1.912,5.43415930022808e-10,9.9766955023384e-11,-9.96933994776918e-11
83,432.568,1.713,-1.835,6.18573919646678e-10,1.21025618390466e-10,-1.20947006679364e-10
84,437.427,3.004,-3.147,3.58943520509095e-10,6.80181324244786e-11,-6.79712130677073e-11
85,442.718,2.565,-2.287,4.66792091120739e-10,8.56965752251355e-11,-8.56332320859374e-11
86,448.099,3.002,-2.817,3.80519306288785e-10,7.20929171568727e-11,-7.20426924956719e-11
87,453.793,2.452,-2.691,4.43577031520009e-10,8.14083160972479e-11,-8.13473209055272e-11
88,460.004,2.548,-3.758,3.6711188986714e-10,6.73942518516229e-11,-6.73443796321667e-11
89,464.899,2.962,-2.347,4.29714928942883e-10,8.14237741413928e-11,-8.13674224871567e-11
90,470.84,2.552,-2.979,4.05336748972697e-10,7.67737412395088e-11,-7.67196531947875e-11
91,477.086,3.039,-3.693,3.28224475815601e-10,6.21726814170013e-11,-6.21289744139491e-11
92,482.271,1.695,-2.146,5.90017236209864e-10,1.08303914786394e-10,-1.08223386941741e-10
93,487.233,3.378,-3.267,3.4213081826629e-10,6.28091456472475e-11,-6.27626850140899e-11
94,494.604,3.114,-3.994,3.20233331899751e-10,5.8764484702972e-11,-5.87202939055036e-11
95,500.795,2.59,-3.077,3.9053980763141e-10,7.39732803542615e-11,-7.39211868691994e-11
96,505.859,2.486,-2.474,4.55258519280165e-10,8.35418844200486e-11,-8.34790472256482e-11
97,510.924,2.655,-2.579,4.10909125889364e-10,8.03580977354161e-11,-8.03048098284084e-11
98,515.143,2.025,-1.564,6.30367186726475e-10,1.15687331798455e-10,-1.15600627827729e-10
99,519.589,1.848,-2.422,5.17372807725266e-10,9.80140070942787e-11,-9.79454595962148e-11
100,524.209,3.084,-2.772,3.75776664446178e-10,7.11604448966031e-11,-7.11099863793239e-11
101,529.332,1.882,-2.039,5.74511930394776e-10,1.05431988769149e-10,-1.05352840088438e-10
102,533.538,2.17,-2.324,4.89850358274918e-10,9.27846814786718e-11,-9.27193230273321e-11
103,539.656,3.597,-3.948,2.89280420658729e-10,5.65846814714156e-11,-5.65474933933485e-11
104,547.283,2.496,-4.03,3.51769708746046e-10,6.66356791170101e-11,-6.65889353069352e-11
105,553.735,4.996,-3.956,2.68407458355202e-10,4.92482999888436e-11,-4.92111530933229e-11
106,561.856,3.296,-3.125,3.68639732440056e-10,6.76363777554841e-11,-6.75853101137617e-11
107,568.097,3.195,-2.944,3.60029322586145e-10,7.04216339545345e-11,-7.03753173807304e-11
108,574.982,3.582,-3.689,3.11564115091345e-10,5.71834626993836e-11,-5.71407042680393e-11
109,582.065,3.56,-3.501,3.0476501352363e-10,5.96086867599346e-11,-5.95693575945586e-11
110,588.521,2.824,-2.896,3.67939562802183e-10,7.43599798628797e-11,-7.43143853371449e-11
111,594.485,3.243,-3.141,3.54443925328016e-10,6.50674517023402e-11,-6.50192587827382e-11
112,602.326,3.942,-4.598,2.57767571076914e-10,4.882474404337e-11,-4.87903752629302e-11
113,609.247,3.775,-2.979,3.33452343017265e-10,6.12094309145092e-11,-6.11639383809693e-11
114,618.377,7.774,-5.355,3.2909907863613e-10,6.23264317327871e-11,-6.22823403945528e-11
115,629.236,2.209,-3.085,4.23625884335804e-10,8.02312575806433e-11,-8.0174543050243e-11
116,635.314,3.193,-3.868,3.20051239664729e-10,6.06165076570038e-11,-6.05737048500393e-11
117,641.849,3.116,-3.342,3.52695511445878e-10,6.6800384964643e-11,-6.67532343552358e-11
118,656.074,3.148,-11.109,3.09942835597904e-10,5.68862256668583e-11,-5.68437025307501e-11
119,3858.325,21.218,-23.914,5.39287443793019e-11,1.2146307480967e-11,-1.2146307480967e-11
120,3893.949,18.189,-14.406,7.69026251098903e-11,1.72269611104921e-11,-1.72269611104921e-11
121,3937.313,22.463,-25.176,5.08314109116994e-11,1.14486967389531e-11,-1.14486967389531e-11
122,3982.312,25.103,-22.535,5.035410177603e-11,1.13411971286077e-11,-1.13411971286077e-11
123,4023.703,13.799,-16.288,8.3019372083974e-11,1.85971783044258e-11,-1.85971783044258e-11
124,4059.418,23.216,-21.915,5.6563425614183e-11,1.27628584186404e-11,-1.27628584186404e-11
125,4102.133,18.11,-19.499,7.19708154707523e-11,1.57053201881421e-11,-1.57053201881421e-11
126,4150.964,36.977,-30.72,5.67107086109721e-11,9.76764620387711e-12,-9.76764620387711e-12
127,4391.63,25.722,-26.932,4.22364038724717e-11,9.53013521527662e-12,-9.53013521527662e-12
128,4448.457,47.357,-31.105,8.57894274221153e-11,1.87529485521962e-11,-1.87529485521962e-11
129,4538.62,34.92,-42.806,3.19347040027025e-11,7.179600321237e-12,-7.179600321237e-12
130,4598.32,35.395,-24.781,4.1780122779483e-11,9.35917454167986e-12,-9.35917454167986e-12
131,4665.033,21.335,-31.318,4.79565145017895e-11,1.0762162008725e-11,-1.0762162008725e-11
132,4722.44,29.118,-36.072,4.1471634539109e-11,8.90005474017376e-12,-8.90005474017376e-12
133,4768.844,20.324,-17.286,6.6943574212711e-11,1.50503346178224e-11,-1.50503346178224e-11
134,4830.258,26.607,-41.09,4.00767503781818e-11,8.82109256378417e-12,-8.82109256378417e-12
135,4878.909,28.103,-22.043,5.14337781631089e-11,1.15633995729786e-11,-1.15633995729786e-11
136,4945.569,34.154,-38.558,3.45671915151923e-11,7.75739380637651e-12,-7.75739380637651e-12
137,5006.905,22.964,-27.182,4.80039321843892e-11,1.08710027519797e-11,-1.08710027519797e-11
138,5053.913,33.625,-24.043,4.25222748965926e-11,9.54263199090764e-12,-9.54263199090764e-12
139,5118.232,19.451,-30.695,4.88941859264007e-11,1.10323826379846e-11,-1.10323826379846e-11
140,5157.104,18.189,-19.421,6.50436548621377e-11,1.46231892165609e-11,-1.46231892165609e-11
141,5205.356,27.605,-30.063,4.2197895143753e-11,9.50418129798922e-12,-9.50418129798922e-12
142,5259.978,28.144,-27.017,4.68403422783037e-11,1.03276516694007e-11,-1.03276516694007e-11
143,5309.785,25.976,-21.663,5.25588078166183e-11,1.18163297075203e-11,-1.18163297075203e-11
144,5376.186,24.765,-40.425,4.15248251914736e-11,8.91146790031607e-12,-8.91146790031607e-12
145,5441.399,32.263,-40.449,3.44273603764145e-11,7.76812231025352e-12,-7.76812231025352e-12
146,5500.718,23.091,-27.055,4.97421520640128e-11,1.11830908052394e-11,-1.11830908052394e-11
147,5565.648,25.858,-41.839,3.72221699171467e-11,8.38350759551275e-12,-8.38350759551275e-12
148,5618.814,27.852,-27.308,4.52184342753167e-11,1.02029941305993e-11,-1.02029941305993e-11
149,5681.189,45.711,-34.523,3.34535573420484e-11,7.30016402351969e-12,-7.30016402351969e-12
150,5755.959,26.102,-29.058,4.584257794979e-11,1.02692005046982e-11,-1.02692005046982e-11
151,5826.026,28.747,-43.965,3.42745765541693e-11,7.74772202363897e-12,-7.74772202363897e-12
152,5897.777,32.215,-43.004,3.48919212487988e-11,7.62712093282808e-12,-7.62712093282808e-12
153,5969.777,22.898,-39.785,4.17614513166511e-11,9.16021920164617e-12,-9.16021920164617e-12
154,6027.873,24.977,-35.198,4.11350172785177e-11,9.28162115673926e-12,-9.28162115673926e-12
155,6096.688,26.367,-43.838,3.70403810538481e-11,8.152768587124e-12,-8.152768587124e-12
156,6154.742,30.996,-31.687,3.94227997624701e-11,8.8791534529747e-12,-8.8791534529747e-12
157,6228.56,44.934,-42.822,2.78108259993543e-11,6.3559774972866e-12,-6.3559774972866e-12
158,6325.387,116.176,-51.894,3.36994572214508e-11,6.40971111917485e-12,-6.40971111917485e-12
159,9696.548,32.357,-30.325,2.81830431103613e-11,6.34943322146091e-12,-6.34943322146091e-12
160,9767.616,44.03,-38.711,3.14507844615446e-11,7.03260725975511e-12,-7.03260725975511e-12
161,9864.296,65.193,-52.65,2.35580406716987e-11,5.1710651291808e-12,-5.1710651291808e-12
162,9983.225,46.556,-53.736,2.65899536865575e-11,5.97508402864e-12,-5.97508402864e-12
163,10092.778,49.832,-62.997,1.71035374904136e-11,3.85797899264451e-12,-3.85797899264451e-12
164,10183.835,33.994,-41.226,2.05779055492972e-11,4.51205661196782e-12,-4.51205661196782e-12
165,10262.806,42.778,-44.977,2.59537168382711e-11,5.83948382914653e-12,-5.83948382914653e-12
166,10371.569,84.453,-65.985,1.7251663877533e-11,3.89108161497883e-12,-3.89108161497883e-12
167,10518.593,50.258,-62.57,2.43940225466737e-11,5.35456693466869e-12,-5.35456693466869e-12
168,10609.078,32.484,-40.227,2.36394483158463e-11,5.29925271331074e-12,-5.29925271331074e-12
169,10701.84,32.493,-60.278,1.58631338253997e-11,3.56501549387441e-12,-3.56501549387441e-12
170,10767.663,39.382,-33.33,2.16273355151041e-11,4.83601932976188e-12,-4.83601932976188e-12
171,10862.045,30.248,-55.001,2.97698914801404e-11,6.68139856169596e-12,-6.68139856169596e-12
172,10947.588,50.012,-55.295,2.54861139961182e-11,5.57458310012759e-12,-5.57458310012759e-12
173,11052.228,35.635,-54.628,1.9347250776624e-11,4.34253910758521e-12,-4.34253910758521e-12
174,11128.335,37.254,-40.472,1.98618628949254e-11,4.45804542587854e-12,-4.45804542587854e-12
175,11199.296,31.483,-33.707,2.40285534285856e-11,5.40690362017247e-12,-5.40690362017247e-12
176,11277.008,41.527,-46.229,1.74483535377929e-11,3.92127014806905e-12,-3.92127014806905e-12
177,11366.084,37.699,-47.55,1.81344997601639e-11,3.99068680688312e-12,-3.99068680688312e-12
178,11455.143,41.411,-51.36,1.57671011822897e-11,3.53006486245668e-12,-3.53006486245668e-12
179,11546.904,54.956,-50.351,1.38837076735556e-11,3.13202692424392e-12,-3.13202692424392e-12
180,11660.31,36.828,-58.45,1.77984095160072e-11,3.71528246936444e-12,-3.71528246936444e-12
181,11726.338,25.961,-29.2,2.67101572265017e-11,6.01031672355453e-12,-6.01031672355453e-12
182,11803.903,46.181,-51.604,1.51584293289515e-11,3.40664212729406e-12,-3.40664212729406e-12
183,11906.195,54.21,-56.112,1.35752189668595e-11,3.05855936446397e-12,-3.05855936446397e-12
184,12005.136,48.039,-44.732,1.61665160315724e-11,3.63778730553786e-12,-3.63778730553786e-12
185,12138.653,97.553,-85.478,1.23372873341701e-11,2.26957309902727e-12,-2.26957309902727e-12
186,15926.625,71.99,-83.462,1.06092742199754e-11,2.27852127175605e-12,-2.27852127175605e-12
187,16064.888,66.614,-66.273,1.12871655995541e-11,2.54087176669225e-12,-2.54087176669225e-12
188,16200.523,63.866,-69.021,1.12031813455437e-11,2.52877358469691e-12,-2.52877358469691e-12
189,16322.768,54.449,-58.379,1.30855705239705e-11,2.95366339912829e-12,-2.95366339912829e-12
190,16459.528,85.678,-82.311,8.82603780526647e-12,1.98417308348692e-12,-1.98417308348692e-12
191,16616.259,54.313,-71.052,1.24715172556043e-11,2.73894541473015e-12,-2.73894541473015e-12
192,16736.978,66.481,-66.406,1.14124213704321e-11,2.56561556447035e-12,-2.56561556447035e-12
193,16870.484,58.34,-67.025,1.21795074678712e-11,2.74914746473658e-12,-2.74914746473658e-12
194,16987.332,64.35,-58.508,1.2514957689309e-11,2.82105875311705e-12,-2.82105875311705e-12
195,17110.806,66.241,-59.124,1.22683266940243e-11,2.76174251257595e-12,-2.76174251257595e-12
196,17261.482,71.017,-84.436,9.82528644078159e-12,2.21775471796008e-12,-2.21775471796008e-12
197,17363.696,54.052,-31.196,1.83199182691069e-11,4.11295587813392e-12,-4.11295587813392e-12
198,17498.181,62.483,-80.433,1.1437628287446e-11,2.55753154257111e-12,-2.55753154257111e-12
199,17615.922,45.034,-55.258,1.68420467642885e-11,3.78116322264971e-12,-3.78116322264971e-12
200,17772.104,59.349,-111.148,1.00566204231927e-11,2.27919839110809e-12,-2.27919839110809e-12
201,17926.304,93.195,-94.851,1.27207435950866e-11,2.43421288918695e-12,-2.43421288918695e-12
202,21999.624,64.365,-73.536,1.07089058041337e-11,2.40100518770732e-12,-2.40100518770732e-12
203,22120.378,58.947,-56.389,1.27214596278366e-11,2.85990002728541e-12,-2.85990002728541e-12
204,22265.897,61.359,-86.572,9.82498269059161e-12,2.22368939252745e-12,-2.22368939252745e-12
205,22434.492,95.855,-107.236,7.07670622928262e-12,1.61477799321428e-12,-1.61477799321428e-12
206,22627.204,131.307,-96.857,6.01471418914256e-12,1.39757116007889e-12,-1.39757116007889e-12
207,22863.254,68.262,-104.742,8.36988325098693e-12,1.88924325959754e-12,-1.88924325959754e-12
208,23030.643,78.891,-99.128,6.47685398098907e-12,1.64115451891849e-12,-1.64115451891849e-12
209,23201.672,78.359,-92.138,6.31915604935534e-12,1.6582006385658e-12,-1.6582006385658e-12
210,23389.777,90.838,-109.746,7.1974623558248e-12,1.63120941186401e-12,-1.63120941186401e-12
211,23590.613,197.871,-109.998,8.98281686617685e-12,1.72560507766217e-12,-1.72560507766217e-12
212,27974.672,112.668,-115.497,5.64358276611033e-12,1.38418775536106e-12,-1.38418775536106e-12
213,28162.432,110.448,-75.092,6.1556556135166e-12,1.60040372460825e-12,-1.60040372460825e-12
214,28426.612,104.52,-153.732,4.43196309613758e-12,1.14960543238462e-12,-1.14960543238462e-12
215,28642.986,86.224,-111.853,5.71196653461955e-12,1.49367895317531e-12,-1.49367895317531e-12
216,28887.584,177.604,-158.375,3.3273126340501e-12,8.70091971048671e-13,-8.70091971048671e-13
217,29183.884,321.609,-118.696,5.86098763749605e-12,1.27857627551489e-12,-1.27857627551489e-12
218,34060.585,74.844,-130.755,5.39384189166559e-12,1.40386250219532e-12,-1.40386250219532e-12
219,34361.273,152.758,-225.845,2.91926164996242e-12,7.65062944921285e-13,-7.65062944921285e-13
220,34601.17,120.967,-87.139,5.26243426574099e-12,1.38715419013065e-12,-1.38715419013065e-12
221,34870.574,102.293,-148.437,4.39151359804606e-12,1.14957534055399e-12,-1.14957534055399e-12
