,t,pos_t_err,neg_t_err,flux,pos_flux_err,neg_flux_err
0,5094.03,32.382,-37.822,5.35240365681168e-11,1.20354287215504e-11,-1.20354287215504e-11
1,5160.57,56.106,-34.157,9.8317769696778e-11,2.20718822951257e-11,-2.20718822951257e-11
2,5296.723,35.289,-80.047,6.41822594291985e-11,1.43900978976119e-11,-1.43900978976119e-11
3,5365.191,37.026,-33.179,5.35740724729237e-11,1.20635836327496e-11,-1.20635836327496e-11
4,5443.879,38.572,-41.662,8.48061061748263e-11,1.85784450817659e-11,-1.85784450817659e-11
5,5549.08,33.663,-66.63,6.49934086868994e-11,1.45925447159685e-11,-1.45925447159685e-11
6,5636.899,41.122,-54.156,4.47149479204158e-11,9.36912529578474e-12,-9.36912529578474e-12
7,5703.441,29.74,-25.421,6.74093619865768e-11,1.51576842780371e-11,-1.51576842780371e-11
8,5769.274,19.068,-36.092,6.81116196558278e-11,1.52302209354171e-11,-1.52302209354171e-11
9,5831.174,39.909,-42.832,4.4260025471593e-11,9.98028765836711e-12,-9.98028765836711e-12
10,5919.043,44.811,-47.96,3.96035044342885e-11,8.91774960593469e-12,-8.91774960593469e-12
11,5998.187,23.334,-34.334,6.47141289645176e-11,1.449071244199e-11,-1.449071244199e-11
12,6060.814,25.897,-39.293,6.19808167372843e-11,1.32311169658631e-11,-1.32311169658631e-11
13,6122.532,29.37,-35.82,5.58057416695552e-11,1.24959601158329e-11,-1.24959601158329e-11
14,6188.228,28.863,-36.327,5.55714401804097e-11,1.24608827338044e-11,-1.24608827338044e-11
15,6255.041,37.27,-37.949,4.80536100954943e-11,1.07902264410418e-11,-1.07902264410418e-11
16,6332.568,29.947,-40.258,5.44815872531297e-11,1.1952310206865e-11,-1.1952310206865e-11
17,6413.741,41.544,-51.226,4.08708961365903e-11,8.94249689430462e-12,-8.94249689430462e-12
18,6493.239,32.251,-37.954,5.15081094215661e-11,1.15336373349503e-11,-1.15336373349503e-11
19,6573.599,32.125,-48.109,4.53739757243334e-11,1.01885243886581e-11,-1.01885243886581e-11
20,6640.671,32.749,-34.948,5.35652093605915e-11,1.20446875762484e-11,-1.20446875762484e-11
21,6720.268,33.386,-46.848,4.59333899623156e-11,1.0299725282389e-11,-1.0299725282389e-11
22,6812.37,49.099,-58.715,3.57692754160018e-11,7.85764007535934e-12,-7.85764007535934e-12
23,6907.946,36.264,-46.477,4.44324349563771e-11,9.97710837860711e-12,-9.97710837860711e-12
24,7002.411,42.091,-58.201,4.42470666655467e-11,9.04239538116201e-12,-9.04239538116201e-12
25,7076.818,45.411,-32.316,4.7468596233999e-11,1.06291139887222e-11,-1.06291139887222e-11
26,7154.177,28.227,-31.948,6.11353057196692e-11,1.37855331558152e-11,-1.37855331558152e-11
27,7230.613,39.547,-48.208,4.21934655052509e-11,9.48763290251094e-12,-9.48763290251094e-12
28,7322.881,42.556,-52.721,3.89989073059637e-11,8.74479583643139e-12,-8.74479583643139e-12
29,7446.196,168.614,-80.758,5.10764140112348e-11,9.9558179792393e-12,-9.9558179792393e-12
30,10887.12,32.993,-52.256,4.32569585078673e-11,9.71278233913223e-12,-9.71278233913223e-12
31,10965.208,52.69,-45.095,3.7262288044099e-11,8.35517265930366e-12,-8.35517265930366e-12
32,11065.997,54.701,-48.098,3.50701233496792e-11,7.91844655258462e-12,-7.91844655258462e-12
33,11145.632,45.271,-24.934,5.17659523495318e-11,1.15912223650093e-11,-1.15912223650093e-11
34,11236.296,42.363,-45.393,4.32070573821399e-11,9.50353534785025e-12,-9.50353534785025e-12
35,11320.879,48.043,-42.22,4.03247766278432e-11,9.05439863746615e-12,-9.05439863746615e-12
36,11420.042,51.68,-51.12,3.54585030100714e-11,7.98387801182967e-12,-7.98387801182967e-12
37,11498.408,41.01,-26.687,5.334665669561e-11,1.2028318552007e-11,-1.2028318552007e-11
38,11586.902,42.78,-47.483,4.07828652026937e-11,9.14458154997451e-12,-9.14458154997451e-12
39,11671.908,27.978,-42.227,5.22951990060378e-11,1.17097318873516e-11,-1.17097318873516e-11
40,11741.613,36.0,-41.727,4.68749217615336e-11,1.05986124509962e-11,-1.05986124509962e-11
41,11816.203,36.629,-38.59,5.83729126865983e-11,1.31068710336122e-11,-1.31068710336122e-11
42,11924.467,56.237,-71.635,5.34127196143109e-11,1.17460873209962e-11,-1.17460873209962e-11
43,12054.732,58.86,-74.027,5.15568575739627e-11,1.12795895639439e-11,-1.12795895639439e-11
44,12170.597,43.287,-57.005,3.77360287674361e-11,8.49669060454503e-12,-8.49669060454503e-12
45,12262.13,34.495,-48.246,4.45121114932344e-11,9.98077180538464e-12,-9.98077180538464e-12
46,12339.591,49.805,-42.966,3.94865367993183e-11,8.86618584665732e-12,-8.86618584665732e-12
47,12435.376,39.268,-45.981,4.32596806671065e-11,9.72688211137222e-12,-9.72688211137222e-12
48,12508.981,30.854,-34.336,5.62916554447971e-11,1.26045998291012e-11,-1.26045998291012e-11
49,12573.663,36.376,-33.829,5.21402790518402e-11,1.16912066312619e-11,-1.16912066312619e-11
50,12669.939,35.377,-59.901,3.86246804900723e-11,8.75764786430562e-12,-8.75764786430562e-12
51,12737.393,28.099,-32.076,7.08875838376177e-11,1.5916354111108e-11,-1.5916354111108e-11
52,12815.496,35.244,-50.004,7.74196392275836e-11,1.74054142308423e-11,-1.74054142308423e-11
53,12913.562,37.47,-62.822,5.60091212329115e-11,1.225403912097e-11,-1.225403912097e-11
54,13002.403,43.908,-51.37,4.0396720202399e-11,8.88539087907211e-12,-8.88539087907211e-12
55,13091.912,47.169,-45.602,3.97124815409429e-11,8.91691764979192e-12,-8.91691764979192e-12
56,13177.297,34.496,-38.216,5.11477880403679e-11,1.14528080406337e-11,-1.14528080406337e-11
57,13293.846,48.327,-82.053,2.97287879387421e-11,6.53028926857165e-12,-6.53028926857165e-12
58,13370.155,34.699,-27.981,6.22295774169498e-11,1.35796062061298e-11,-1.35796062061298e-11
59,16691.313,33.231,-36.974,5.58654232951727e-11,1.25544510470988e-11,-1.25544510470988e-11
60,16763.398,26.336,-38.854,6.31420197234833e-11,1.38224544551791e-11,-1.38224544551791e-11
61,16846.497,48.544,-56.763,3.72028339585482e-11,8.36047240443374e-12,-8.36047240443374e-12
62,16930.258,32.48,-35.217,5.79263551503569e-11,1.30175998535781e-11,-1.30175998535781e-11
63,16988.718,19.152,-25.979,9.59671211339268e-11,2.04912023832713e-11,-2.04912023832713e-11
64,17041.335,29.218,-33.465,6.2847731121978e-11,1.4076565161606e-11,-1.4076565161606e-11
65,17106.773,38.999,-36.22,5.24454652068193e-11,1.17858971676379e-11,-1.17858971676379e-11
66,17191.258,54.807,-45.486,3.91947938934191e-11,8.8376221328336e-12,-8.8376221328336e-12
67,17279.774,41.51,-33.709,5.22591132663382e-11,1.17636566501178e-11,-1.17636566501178e-11
68,17372.407,56.692,-51.123,3.62953868575483e-11,8.23905010572144e-12,-8.23905010572144e-12
69,17464.184,40.134,-35.086,5.80562757244309e-11,1.24528611005037e-11,-1.24528611005037e-11
70,17553.548,38.525,-49.23,4.76251610777146e-11,1.05090315838583e-11,-1.05090315838583e-11
71,17640.317,42.02,-48.244,4.42992310038818e-11,1.00390016556669e-11,-1.00390016556669e-11
72,17732.04,48.081,-49.704,6.74661898682222e-11,1.48383063645003e-11,-1.48383063645003e-11
73,17841.633,61.346,-61.512,5.09466418692005e-11,1.12398181390958e-11,-1.12398181390958e-11
74,17952.981,45.276,-50.002,4.23654135572018e-11,9.52063842027272e-12,-9.52063842027272e-12
75,18033.725,32.229,-35.468,5.97324400812593e-11,1.34011030580996e-11,-1.34011030580996e-11
76,18105.799,45.404,-39.845,4.686214692944e-11,1.05664530421313e-11,-1.05664530421313e-11
77,18190.299,43.645,-39.096,4.80789187673919e-11,1.08046164640177e-11,-1.08046164640177e-11
78,18276.925,42.267,-42.981,4.64629812049333e-11,1.04067264263417e-11,-1.04067264263417e-11
79,18368.197,31.23,-49.004,4.91570671424145e-11,1.10284938690967e-11,-1.10284938690967e-11
80,18438.511,38.642,-39.084,5.32457229024132e-11,1.1656049287676e-11,-1.1656049287676e-11
81,18516.759,28.091,-39.606,7.08944084577136e-11,1.59318676002954e-11,-1.59318676002954e-11
82,18609.766,40.391,-64.916,6.45554476354674e-11,1.44585825406996e-11,-1.44585825406996e-11
83,18685.624,29.724,-35.466,9.6419563059751e-11,2.16312166329603e-11,-2.16312166329603e-11
84,18760.841,44.77,-45.494,4.3483943340192e-11,9.75571696925408e-12,-9.75571696925408e-12
85,18831.932,31.347,-26.321,6.80026729239687e-11,1.52565474021687e-11,-1.52565474021687e-11
86,18885.71,37.744,-22.431,6.49060562968694e-11,1.46105154238444e-11,-1.46105154238444e-11
87,18962.429,38.752,-38.974,4.96287407006628e-11,1.1303830636292e-11,-1.1303830636292e-11
88,19072.55,108.638,-71.369,3.67933965556935e-11,7.67466279967549e-12,-7.67466279967549e-12
89,22506.536,43.013,-52.265,3.79998075473982e-11,8.62607284725108e-12,-8.62607284725108e-12
90,22589.532,32.729,-39.983,6.02279388811741e-11,1.3512307926249e-11,-1.3512307926249e-11
91,22668.752,41.265,-46.491,7.05943802793306e-11,1.59150678422065e-11,-1.59150678422065e-11
92,22756.511,48.784,-46.494,5.95673008278324e-11,1.34299678854105e-11,-1.34299678854105e-11
93,22840.514,29.971,-35.219,5.52855435173223e-11,1.24449885401117e-11,-1.24449885401117e-11
94,22912.222,41.005,-41.737,4.36005106223474e-11,9.79824246590501e-12,-9.79824246590501e-12
95,23003.246,30.214,-50.02,4.98261379112935e-11,1.063905035338e-11,-1.063905035338e-11
96,23070.309,28.341,-36.849,5.5337710285758e-11,1.24151742739351e-11,-1.24151742739351e-11
97,23155.04,51.424,-56.39,3.31567284944032e-11,7.50136331780695e-12,-7.50136331780695e-12
98,23247.576,31.6,-41.112,4.9264044728772e-11,1.11267647845972e-11,-1.11267647845972e-11
99,23305.75,23.573,-26.573,7.15349192081487e-11,1.6102783790087e-11,-1.6102783790087e-11
100,23370.434,31.6,-41.112,4.95263407995402e-11,1.1111378005337e-11,-1.1111378005337e-11
101,23445.774,36.494,-43.74,4.45715746932496e-11,1.00500526591747e-11,-1.00500526591747e-11
102,23510.843,29.093,-28.575,6.22829443564508e-11,1.39733563944042e-11,-1.39733563944042e-11
103,23578.279,54.428,-38.343,3.8676288693753e-11,8.6916352836579e-12,-8.6916352836579e-12
104,23664.399,33.498,-31.692,5.76804617256973e-11,1.26469895545087e-11,-1.26469895545087e-11
105,23739.133,36.49,-41.236,4.63560996389388e-11,1.03655384989716e-11,-1.03655384989716e-11
106,23825.501,50.414,-49.878,3.58164269966122e-11,8.06241286185273e-12,-8.06241286185273e-12
107,23921.412,37.245,-45.496,4.37992268188639e-11,9.8101172622817e-12,-9.8101172622817e-12
108,24015.657,35.77,-57.0,4.11413736307774e-11,9.03500780046323e-12,-9.03500780046323e-12
109,24093.416,35.737,-41.989,4.68034765036636e-11,1.0518038751807e-11,-1.0518038751807e-11
110,24160.112,29.217,-30.959,6.0888651738967e-11,1.36377926394364e-11,-1.36377926394364e-11
111,24230.06,44.518,-40.73,4.33511166875195e-11,9.7421978603229e-12,-9.7421978603229e-12
112,24322.954,41.886,-48.377,4.03355509195014e-11,9.14087018986873e-12,-9.14087018986873e-12
113,24418.972,63.712,-54.131,3.07561958847934e-11,7.02918667438216e-12,-7.02918667438216e-12
114,24514.521,23.324,-31.836,6.72795981810033e-11,1.50692339960186e-11,-1.50692339960186e-11
115,24602.726,27.89,-64.881,4.22295178014137e-11,9.25922342197792e-12,-9.25922342197792e-12
116,24678.492,39.879,-47.877,4.2284641252626e-11,9.53439169928567e-12,-9.53439169928567e-12
117,24776.403,37.246,-58.032,3.92889048273082e-11,8.81457904460224e-12,-8.81457904460224e-12
118,24868.142,35.771,-54.492,4.35711828339571e-11,9.56861641593619e-12,-9.56861641593619e-12
119,24938.55,35.56,-34.637,5.88734509203605e-11,1.26282110055636e-11,-1.26282110055636e-11
120,28528.919,70.61,-64.784,3.30458360867031e-11,7.44885338532634e-12,-7.44885338532634e-12
121,28654.375,50.462,-54.845,4.4522532775128e-11,9.80524420993301e-12,-9.80524420993301e-12
122,28760.852,59.321,-56.016,3.89675523417825e-11,8.76952525561129e-12,-8.76952525561129e-12
123,28923.316,82.398,-103.143,2.41254271298684e-11,5.48229923281068e-12,-5.48229923281068e-12
124,29057.702,30.753,-51.988,5.77186551762453e-11,1.26530783248298e-11,-1.26530783248298e-11
125,29180.524,78.428,-92.069,2.80805283011803e-11,6.16524772747334e-12,-6.16524772747334e-12
126,29330.498,91.429,-71.546,2.91617752366595e-11,6.49217721010899e-12,-6.49217721010899e-12
127,29485.09,49.666,-63.163,4.07484483849738e-11,9.18509692183388e-12,-9.18509692183388e-12
128,29629.563,93.241,-94.807,1.84104262718332e-11,4.7944556751386e-12,-4.7944556751386e-12
129,29769.431,31.099,-46.628,5.98718905608429e-11,1.34523245816752e-11,-1.34523245816752e-11
130,29895.51,105.605,-94.98,2.32099574022588e-11,5.23174877395796e-12,-5.23174877395796e-12
131,30106.758,89.927,-105.643,2.38876201589773e-11,5.40192121165815e-12,-5.40192121165815e-12
132,30296.826,95.43,-100.14,1.78756047458479e-11,4.70577910360688e-12,-4.70577910360688e-12
133,30575.755,179.247,-183.5,2.5238086610812e-11,4.24787369494003e-12,-4.24787369494003e-12
134,34598.095,62.774,-112.737,3.32590924191782e-11,7.29796277515087e-12,-7.29796277515087e-12
135,34746.556,107.375,-85.687,2.89921721451667e-11,6.5396244472701e-12,-6.5396244472701e-12
136,34940.38,114.136,-86.448,2.09390321662588e-11,5.49836805576891e-12,-5.49836805576891e-12
137,35167.669,89.939,-113.152,2.78047680266772e-11,6.28402102032268e-12,-6.28402102032268e-12
138,35497.238,214.189,-239.63,1.43311142091589e-11,3.05224732344328e-12,-3.05224732344328e-12
139,69562.647,630.756,-883.12,9.80987195435923e-12,2.67671535708738e-12,-2.67671535708738e-12
140,70731.626,519.856,-538.223,1.34993244980318e-11,3.49763774599976e-12,-3.49763774599976e-12
141,78931.821,3888.256,-4467.076,6.77265532972492e-12,1.38968212675206e-12,-1.38968212675206e-12
142,87211.404,1394.765,-1180.232,1.20136786257488e-11,2.91385391313532e-12,-2.91385391313532e-12
143,95770.144,3921.769,-3953.46,7.34746516022517e-12,2.0393951303483e-12,-2.0393951303483e-12
144,118527.353,10505.946,-12770.599,1.24288002506259e-11,3.52788202895601e-12,-3.52788202895601e-12
145,175901.574,68811.616,-41909.851,9.59291790310532e-12,2.85598961340312e-12,-2.85598961340312e-12
