,t,pos_t_err,neg_t_err,flux,pos_flux_err,neg_flux_err
0,3717.351,54.301,-48.499,1.77637543920406e-11,4.03308339044571e-12,-4.03308339044571e-12
1,3819.463,54.989,-47.811,1.77491389587494e-11,4.00183878813612e-12,-4.00183878813612e-12
2,3922.23,52.514,-47.778,1.81331050283064e-11,4.08275187723765e-12,-4.08275187723765e-12
3,4007.033,37.916,-32.289,1.59092827520518e-11,3.60280459557218e-12,-3.60280459557218e-12
4,4099.871,55.4,-54.922,1.06219537021709e-11,2.33348726816215e-12,-2.33348726816215e-12
5,4182.196,25.728,-26.925,2.09068572152203e-11,4.68148285840018e-12,-4.68148285840018e-12
6,4236.321,46.823,-28.397,1.42779097819808e-11,3.21973596205032e-12,-3.21973596205032e-12
7,4346.785,46.681,-63.641,1.84367096186738e-11,4.16789009473792e-12,-4.16789009473792e-12
8,4430.645,40.547,-37.18,1.36494445973894e-11,3.07801406826139e-12,-3.07801406826139e-12
9,4502.009,21.837,-30.816,2.01885280859838e-11,4.54617790979603e-12,-4.54617790979603e-12
10,4592.318,49.372,-68.472,9.13036618951571e-12,2.06478116290621e-12,-2.06478116290621e-12
11,4683.132,31.269,-41.443,1.52413589223658e-11,3.43699840279409e-12,-3.43699840279409e-12
12,4763.145,23.968,-48.744,1.56731771140489e-11,3.5194398143983e-12,-3.5194398143983e-12
13,4829.077,28.241,-41.963,1.68631832263488e-11,3.80272821083398e-12,-3.80272821083398e-12
14,4887.366,42.664,-30.048,1.63021813742972e-11,3.67102677198278e-12,-3.67102677198278e-12
15,4966.338,28.882,-36.308,1.89116130148435e-11,4.05264256003406e-12,-4.05264256003406e-12
16,5034.511,48.465,-39.291,1.21530376172524e-11,2.73283632239106e-12,-2.73283632239106e-12
17,5116.292,31.874,-33.316,1.63966894902472e-11,3.69230786203395e-12,-3.69230786203395e-12
18,5192.845,50.598,-44.679,1.13351821172884e-11,2.54892598512025e-12,-2.54892598512025e-12
19,5270.118,30.993,-26.675,1.86995594395695e-11,4.21683872312887e-12,-4.21683872312887e-12
20,5333.472,42.859,-32.361,2.25331105861545e-11,4.94315034378444e-12,-4.94315034378444e-12
21,5427.298,44.311,-50.967,1.96532786639949e-11,4.44347671551079e-12,-4.44347671551079e-12
22,5508.514,30.792,-36.905,1.89537630565922e-11,4.14713208648354e-12,-4.14713208648354e-12
23,5593.398,33.664,-54.092,1.33209899133229e-11,2.95022871761042e-12,-2.95022871761042e-12
24,5667.876,39.42,-40.814,1.41495619284613e-11,3.18628604755351e-12,-3.18628604755351e-12
25,5740.236,37.264,-32.941,1.63535276070696e-11,3.67739439512518e-12,-3.67739439512518e-12
26,5822.865,42.391,-45.364,1.34112883724964e-11,2.95420876422097e-12,-2.95420876422097e-12
27,5899.319,31.127,-34.063,1.68857416015789e-11,3.82404079728656e-12,-3.82404079728656e-12
28,5973.773,39.415,-43.327,1.3393782121931e-11,3.02036098341055e-12,-3.02036098341055e-12
29,6042.493,33.378,-29.305,1.76582365195309e-11,3.97639156780023e-12,-3.97639156780023e-12
30,6112.198,33.877,-36.328,1.57054501866206e-11,3.53665097931893e-12,-3.53665097931893e-12
31,6216.18,77.822,-70.106,1.0790933238726e-11,2.01748813198294e-12,-2.01748813198294e-12
32,9560.662,47.671,-62.651,9.54776362797047e-12,2.15301905883777e-12,-2.15301905883777e-12
33,9670.087,43.553,-61.754,9.91405391739161e-12,2.25149795709203e-12,-2.25149795709203e-12
34,9800.913,75.704,-87.272,6.48942825157632e-12,1.46130334058586e-12,-1.46130334058586e-12
35,9927.594,54.33,-50.977,9.97413667665146e-12,2.27159625106252e-12,-2.27159625106252e-12
36,10069.325,83.095,-87.402,6.15239743760358e-12,1.40520310452675e-12,-1.40520310452675e-12
37,10210.684,29.493,-58.263,1.20890678412277e-11,2.7184120484623e-12,-2.7184120484623e-12
38,10296.503,71.546,-56.327,8.28584243777288e-12,1.86582353457761e-12,-1.86582353457761e-12
39,10425.111,63.289,-57.062,9.52151707778721e-12,2.10298419803977e-12,-2.10298419803977e-12
40,10562.889,78.457,-74.489,7.53192906493198e-12,1.70808658345266e-12,-1.70808658345266e-12
41,10713.189,113.698,-71.843,6.45252021678902e-12,1.45915943347028e-12,-1.45915943347028e-12
42,10889.133,65.626,-62.246,9.49707182535405e-12,2.14158821944052e-12,-2.14158821944052e-12
43,11060.925,94.42,-106.165,5.96116719341859e-12,1.34995516871281e-12,-1.34995516871281e-12
44,11201.826,48.796,-46.482,1.19125542635444e-11,2.67495693594952e-12,-2.67495693594952e-12
45,11348.549,65.048,-97.927,6.42674998682921e-12,1.46996499914103e-12,-1.46996499914103e-12
46,11500.889,58.132,-87.292,7.26426668200216e-12,1.64272599954333e-12,-1.64272599954333e-12
47,11620.148,51.702,-61.127,9.49783710417996e-12,2.13573404347337e-12,-2.13573404347337e-12
48,11726.599,55.573,-54.749,9.69379152348445e-12,2.20147569031327e-12,-2.20147569031327e-12
49,11926.948,151.075,-144.776,5.29517877138665e-12,9.99687193287257e-13,-9.99687193287257e-13
50,15367.459,91.736,-86.283,7.16540854134727e-12,1.62119965412043e-12,-1.62119965412043e-12
51,15576.824,87.972,-117.628,6.14904424977576e-12,1.38493833761741e-12,-1.38493833761741e-12
52,15830.424,147.785,-165.629,2.7934830475325e-12,7.40826870618685e-13,-7.40826870618685e-13
53,16091.166,97.658,-112.956,5.32795326679055e-12,1.20327726152663e-12,-1.20327726152663e-12
54,16270.138,66.617,-81.314,7.49150735631314e-12,1.68882987784259e-12,-1.68882987784259e-12
55,16497.947,179.802,-161.192,2.39860966149655e-12,6.34543547583751e-13,-6.34543547583751e-13
56,16786.827,119.088,-109.078,4.85173183089245e-12,1.09672313815108e-12,-1.09672313815108e-12
57,16972.45,53.815,-66.536,9.08638810975661e-12,2.04836763496462e-12,-2.04836763496462e-12
58,17116.273,110.577,-90.008,5.45833153861392e-12,1.22937029892604e-12,-1.22937029892604e-12
59,17321.946,95.46,-95.096,4.29986786799002e-12,1.12234117570486e-12,-1.12234117570486e-12
60,17634.254,224.426,-216.849,3.31632593109764e-12,6.47725893696938e-13,-6.47725893696938e-13
61,21136.075,93.646,-121.983,3.81033409630036e-12,9.96982779169796e-13,-9.96982779169796e-13
62,21407.556,80.419,-177.834,3.11733344374624e-12,8.31836320365582e-13,-8.31836320365582e-13
63,21597.432,156.319,-109.457,3.11954517746345e-12,8.14256171082878e-13,-8.14256171082878e-13
64,21900.688,61.169,-146.938,4.08362219969676e-12,1.06719193344534e-12,-1.06719193344534e-12
65,22045.426,109.494,-83.569,4.42115737592819e-12,1.15962591506369e-12,-1.15962591506369e-12
66,22250.038,107.974,-95.118,4.22744332039929e-12,1.11561435224779e-12,-1.11561435224779e-12
67,22460.643,87.925,-102.631,4.58572999314046e-12,1.20132768865227e-12,-1.20132768865227e-12
68,22713.677,163.349,-165.109,2.64575868419451e-12,6.98210419836444e-13,-6.98210419836444e-13
69,23216.527,416.469,-339.501,3.48723751236938e-12,6.50732943687042e-13,-6.50732943687042e-13
70,26975.117,157.74,-178.24,2.54288779952845e-12,6.68558644859324e-13,-6.68558644859324e-13
71,27353.712,200.374,-220.856,2.03953848239524e-12,5.33971603505433e-13,-5.33971603505433e-13
72,27688.422,108.874,-134.336,3.54053286652836e-12,9.20510452081341e-13,-9.20510452081341e-13
73,28056.53,179.545,-259.234,1.9581066219589e-12,5.13729689768219e-13,-5.13729689768219e-13
74,28346.089,90.571,-110.014,4.37618360014099e-12,1.13619476643087e-12,-1.13619476643087e-12
75,28558.319,146.623,-121.659,3.25364213512442e-12,8.52432521898791e-13,-8.52432521898791e-13
76,29055.402,364.806,-350.46,1.5385031785167e-12,3.88506887256371e-13,-3.88506887256371e-13
77,34047.145,191.544,-222.163,2.13435506215608e-12,5.61105243881737e-13,-5.61105243881737e-13
78,34829.502,365.135,-590.814,1.65955512774873e-12,3.33795644340282e-13,-3.33795644340282e-13
79,40459.544,508.815,-493.671,1.09828606702774e-12,2.63386180573031e-13,-2.63386180573031e-13
80,48744.132,3798.526,-4584.858,7.13093286019945e-13,1.58935616963029e-13,-1.58935616963029e-13
81,56586.536,1748.271,-813.023,8.12551113411555e-13,2.28052996511354e-13,-2.28052996511354e-13
82,62248.731,1877.765,-741.585,1.00235389641994e-12,2.31957549328588e-13,-2.31957549328588e-13
83,67857.027,691.705,-576.989,9.00634937992429e-13,2.11413977167976e-13,-2.11413977167976e-13
84,82853.408,4405.772,-2666.739,3.59608356897767e-13,8.00601475302525e-14,-8.00601475302525e-14
85,94819.39,4006.199,-4410.447,3.28768266188067e-13,6.46163581756679e-14,-6.46163581756679e-14
86,103540.418,6821.22,-1550.035,3.70996342839043e-13,8.9386571017236e-14,-8.9386571017236e-14
87,149250.853,46371.011,-28655.693,1.51136901673561e-13,4.86896696915924e-14,-4.06852395427328e-14
