,t,pos_t_err,neg_t_err,flux,pos_flux_err,neg_flux_err
0,4277.772,31.504,-46.223,2.68463798071865e-11,6.02206626985072e-12,-6.02206626985072e-12
1,4342.703,36.777,-33.427,2.87681101322986e-11,6.45997308434098e-12,-6.45997308434098e-12
2,4413.641,38.552,-34.16,2.72397867149649e-11,6.09742841603936e-12,-6.09742841603936e-12
3,4498.868,28.544,-46.675,2.73822838666163e-11,5.84912863688237e-12,-5.84912863688237e-12
4,4588.409,34.281,-60.997,1.42919148221387e-11,3.2127771500694e-12,-3.2127771500694e-12
5,4661.145,29.242,-38.455,1.73013985358854e-11,3.79106248900401e-12,-3.79106248900401e-12
6,4737.533,45.625,-47.146,2.0413043174768e-11,4.4769535546122e-12,-4.4769535546122e-12
7,4813.457,29.876,-30.299,2.92206110952592e-11,6.56853338817598e-12,-6.56853338817598e-12
8,4880.915,25.101,-37.582,2.82055768018218e-11,6.33365228646538e-12,-6.33365228646538e-12
9,4948.485,27.735,-42.47,2.42847352027756e-11,5.4589891286169e-12,-5.4589891286169e-12
10,5011.617,57.374,-35.397,1.84241743186271e-11,4.12847273838493e-12,-4.12847273838493e-12
11,5096.919,29.739,-27.929,2.07214175700604e-11,4.66329059670758e-12,-4.66329059670758e-12
12,5164.531,29.826,-37.872,1.45104261872857e-11,3.16969305547731e-12,-3.16969305547731e-12
13,5225.426,29.105,-31.07,1.86454337238033e-11,4.19631375768173e-12,-4.19631375768173e-12
14,5299.495,37.778,-44.964,2.04182966601613e-11,4.5995938406995e-12,-4.5995938406995e-12
15,5380.952,51.598,-43.68,1.7630297177549e-11,3.97154704172432e-12,-3.97154704172432e-12
16,5472.112,43.18,-39.562,2.1501494807409e-11,4.83334181674637e-12,-4.83334181674637e-12
17,5557.346,28.15,-42.055,1.90903203017534e-11,4.19573289567583e-12,-4.19573289567583e-12
18,5625.068,40.661,-39.573,1.239784354996e-11,2.78124869214328e-12,-2.78124869214328e-12
19,5715.186,43.314,-49.456,1.88126028681335e-11,4.21996443394435e-12,-4.21996443394435e-12
20,5813.044,55.778,-54.544,1.6658677321675e-11,3.66093597464018e-12,-3.66093597464018e-12
21,5914.261,44.824,-45.439,1.89771155155899e-11,4.26588621854347e-12,-4.26588621854347e-12
22,6015.059,41.811,-55.974,1.76667953783301e-11,3.96294228489253e-12,-3.96294228489253e-12
23,6097.029,20.016,-40.16,3.00795460790561e-11,6.59034782820932e-12,-6.59034782820932e-12
24,6179.909,39.936,-62.864,1.71769963623391e-11,3.84900410664683e-12,-3.84900410664683e-12
25,6260.899,56.731,-41.054,1.75368582945545e-11,3.93379538606085e-12,-3.93379538606085e-12
26,6378.758,41.672,-61.128,1.86120124926676e-11,4.08607492189504e-12,-4.08607492189504e-12
27,6455.637,24.968,-35.207,1.63538126487149e-11,3.66870337071442e-12,-3.66870337071442e-12
28,6516.816,26.472,-36.211,1.56709901881575e-11,3.51933461690704e-12,-3.51933461690704e-12
29,6578.737,29.741,-35.449,1.52563854579741e-11,3.42994256155154e-12,-3.42994256155154e-12
30,6639.577,19.046,-31.1,2.19676969789991e-11,4.70662033910438e-12,-4.70662033910438e-12
31,6732.195,68.715,-73.571,1.21486881430112e-11,2.31013406623178e-12,-2.31013406623178e-12
32,10057.489,37.645,-52.618,1.23300611393095e-11,2.78245746025195e-12,-2.78245746025195e-12
33,10134.971,52.934,-39.837,1.14381357306531e-11,2.57525689792393e-12,-2.57525689792393e-12
34,10245.257,68.013,-57.353,8.33218096472719e-12,1.86952505577428e-12,-1.86952505577428e-12
35,10364.723,63.883,-51.453,8.88730616479251e-12,1.98952960303524e-12,-1.98952960303524e-12
36,10477.216,46.669,-48.609,1.11158801593119e-11,2.43360968001585e-12,-2.43360968001585e-12
37,10603.766,50.498,-79.882,7.97188257652708e-12,1.7529279476196e-12,-1.7529279476196e-12
38,10684.202,45.282,-29.937,1.30543470939769e-11,2.92905761243169e-12,-2.92905761243169e-12
39,10780.105,37.135,-50.621,1.09869380350446e-11,2.46800711556545e-12,-2.46800711556545e-12
40,10863.557,69.019,-46.317,8.23425088234346e-12,1.85178807110381e-12,-1.85178807110381e-12
41,10991.32,61.607,-58.744,8.09252917455483e-12,1.81783333335652e-12,-1.81783333335652e-12
42,11091.879,48.804,-38.952,1.19503730522842e-11,2.62201719238172e-12,-2.62201719238172e-12
43,11203.439,50.072,-62.756,8.99675246661946e-12,2.01863851489553e-12,-2.01863851489553e-12
44,11305.929,55.396,-52.418,9.7681418236838e-12,2.14790510944874e-12,-2.14790510944874e-12
45,11418.942,52.705,-57.616,9.02263746868761e-12,2.0290874593574e-12,-2.0290874593574e-12
46,11530.381,64.124,-58.734,8.23450989887209e-12,1.85397187903657e-12,-1.85397187903657e-12
47,11634.333,47.928,-39.827,1.17301104144107e-11,2.63796738585837e-12,-2.63796738585837e-12
48,11770.789,81.969,-88.528,6.17721775675792e-12,1.39078019698223e-12,-1.39078019698223e-12
49,11961.096,77.203,-108.338,6.19135512268678e-12,1.35843819226084e-12,-1.35843819226084e-12
50,12095.284,73.395,-56.985,8.41045242502871e-12,1.90012583609865e-12,-1.90012583609865e-12
51,12215.142,56.337,-46.463,1.05300178448684e-11,2.36266311739858e-12,-2.36266311739858e-12
52,12337.856,64.003,-66.377,8.57974924845637e-12,1.88865663773979e-12,-1.88865663773979e-12
53,12487.663,124.8,-85.803,8.73697929852999e-12,1.48552786770399e-12,-1.48552786770399e-12
54,15907.316,252.536,-118.546,3.1473686254894e-12,7.46050427470105e-13,-7.46050427470105e-13
55,16465.069,243.884,-305.217,1.6514902309888e-12,4.31127054430817e-13,-4.31127054430817e-13
56,16990.986,292.14,-282.033,1.5641249683154e-12,4.09830563011495e-13,-4.09830563011495e-13
57,17899.652,494.203,-616.525,1.56262189846661e-12,2.93571492876104e-13,-2.93571492876104e-13
58,21728.825,152.23,-161.185,2.38077158458571e-12,6.19496779135652e-13,-6.19496779135652e-13
59,22000.233,73.885,-119.178,3.84985889538181e-12,9.97882560826511e-13,-9.97882560826511e-13
60,22158.818,176.061,-84.7,2.81836608135925e-12,7.34076542047689e-13,-7.34076542047689e-13
61,22501.187,99.466,-166.309,2.7030105220732e-12,7.06783674738603e-13,-7.06783674738603e-13
62,22746.74,84.586,-146.086,3.0927114251198e-12,8.0553317444586e-13,-8.0553317444586e-13
63,22948.372,73.51,-117.046,3.70600736261917e-12,9.65273308372682e-13,-9.65273308372682e-13
64,23184.66,102.996,-162.779,2.63684486010666e-12,6.85462512732291e-13,-6.85462512732291e-13
65,23442.241,113.698,-154.585,2.60048457228438e-12,6.74699020880869e-13,-6.74699020880869e-13
66,23736.122,158.304,-180.183,2.052344553969e-12,5.36123501921117e-13,-5.36123501921117e-13
67,24037.71,122.478,-143.284,3.81919389432892e-12,8.2787644563832e-13,-8.2787644563832e-13
68,27900.139,282.264,-550.164,2.176548381172e-12,5.70861863541975e-13,-5.70861863541975e-13
69,30265.304,3162.254,-2082.901,1.41264796584588e-12,2.6770108128357e-13,-2.6770108128357e-13
70,48410.095,4643.705,-2395.705,4.63634124661545e-13,1.15440998880029e-13,-1.15440998880029e-13
71,62618.386,7779.885,-6332.23,4.17121105046075e-13,1.07103179256382e-13,-1.07103179256382e-13
72,79366.13,7895.356,-5744.358,2.02891204532226e-13,5.52275613415282e-14,-5.52275613415282e-14
73,94617.616,4701.651,-3678.109,2.72567509953148e-13,6.83900919446542e-14,-6.83900919446542e-14
74,111573.746,10429.055,-9071.156,1.74994524792389e-13,3.7341012258753e-14,-3.7341012258753e-14
75,220055.656,69285.579,-41808.43,4.37372007851382e-14,2.32740559331568e-14,-1.76522239677076e-14
