,t,pos_t_err,neg_t_err,flux,pos_flux_err,neg_flux_err
0,126.729,0.9,-0.721,9.83E-09,1.54E-09,-1.54E-09
1,128.225,0.761,-0.596,1.21E-08,1.83E-09,-1.82E-09
2,129.991,1.007,-1.005,8.24E-09,1.24E-09,-1.24E-09
3,131.936,1.106,-0.938,7.79E-09,1.25E-09,-1.25E-09
4,133.91,0.922,-0.868,8.94E-09,1.43E-09,-1.43E-09
5,135.752,0.648,-0.92,1.07E-08,1.64E-09,-1.64E-09
6,137.33,0.749,-0.931,1.12E-08,1.69E-09,-1.69E-09
7,138.916,0.727,-0.837,1.11E-08,1.78E-09,-1.78E-09
8,140.55,1.004,-0.907,8.92E-09,1.41E-09,-1.40E-09
9,142.615,1.166,-1.061,7.42E-09,1.16E-09,-1.15E-09
10,144.638,0.775,-0.857,9.25E-09,1.55E-09,-1.55E-09
11,146.339,0.874,-0.927,8.75E-09,1.42E-09,-1.42E-09
12,148.412,0.881,-1.199,8.94E-09,1.52E-09,-1.51E-09
13,150.418,1.234,-1.125,7.98E-09,1.41E-09,-1.38E-09
14,152.855,1.345,-1.203,7.87E-09,1.37E-09,-1.32E-09
15,155.356,0.906,-1.156,9.43E-09,1.74E-09,-1.65E-09
16,157.221,0.955,-0.959,1.02E-08,1.84E-09,-1.72E-09
17,159.03,0.649,-0.854,1.32E-08,2.35E-09,-2.13E-09
18,160.935,0.947,-1.256,8.75E-09,1.56E-09,-1.43E-09
19,162.963,1.052,-1.081,8.79E-09,1.57E-09,-1.41E-09
20,165.077,1.187,-1.062,8.27E-09,1.47E-09,-1.33E-09
21,167.582,1.312,-1.318,7.01E-09,1.27E-09,-1.15E-09
22,169.839,1.184,-0.946,9.12E-09,1.74E-09,-1.44E-09
23,172.246,1.059,-1.223,8.36E-09,1.50E-09,-1.33E-09
24,174.532,1.124,-1.226,8.23E-09,1.46E-09,-1.31E-09
25,176.565,0.687,-0.909,1.21E-08,2.27E-09,-1.97E-09
26,178.603,1.536,-1.351,7.06E-09,1.33E-09,-1.11E-09
27,181.384,1.177,-1.244,8.80E-09,1.58E-09,-1.39E-09
28,183.695,1.225,-1.134,8.72E-09,1.59E-09,-1.38E-09
29,186.107,1.144,-1.187,8.09E-09,1.60E-09,-1.34E-09
30,188.561,1.087,-1.311,7.65E-09,1.47E-09,-1.25E-09
31,190.638,1.15,-0.989,8.50E-09,1.55E-09,-1.33E-09
32,192.712,1.324,-0.925,8.15E-09,1.55E-09,-1.31E-09
33,194.958,1.213,-0.922,8.93E-09,1.72E-09,-1.41E-09
34,197.012,0.774,-0.841,1.21E-08,2.31E-09,-1.90E-09
35,199.075,1.11,-1.289,8.03E-09,1.51E-09,-1.29E-09
36,201.54,1.081,-1.355,7.27E-09,1.36E-09,-1.16E-09
37,203.592,1.067,-0.971,8.11E-09,1.54E-09,-1.32E-09
38,205.832,1.245,-1.173,6.37E-09,1.23E-09,-1.06E-09
39,208.309,1.278,-1.232,5.96E-09,1.08E-09,-9.77E-10
40,211.181,1.303,-1.593,4.72E-09,8.54E-10,-7.78E-10
41,213.975,1.866,-1.491,3.74E-09,6.95E-10,-6.43E-10
42,216.727,0.76,-0.886,8.47E-09,1.53E-09,-1.41E-09
43,218.818,1.252,-1.332,5.79E-09,1.03E-09,-9.45E-10
44,221.452,1.313,-1.382,5.48E-09,1.02E-09,-9.51E-10
45,224.137,1.763,-1.372,4.84E-09,8.68E-10,-8.14E-10
46,227.017,0.982,-1.117,7.22E-09,1.30E-09,-1.25E-09
47,229.591,1.232,-1.591,5.13E-09,9.23E-10,-8.87E-10
48,232.12,1.774,-1.297,4.50E-09,7.95E-10,-7.66E-10
49,234.942,1.124,-1.048,5.86E-09,1.08E-09,-1.02E-09
50,237.437,1.146,-1.371,5.48E-09,9.65E-10,-9.13E-10
51,239.757,0.988,-1.174,6.49E-09,1.16E-09,-1.10E-09
52,242.186,1.567,-1.441,4.71E-09,8.48E-10,-7.89E-10
53,244.965,1.147,-1.212,5.62E-09,1.04E-09,-9.81E-10
54,247.581,1.141,-1.469,5.08E-09,9.05E-10,-8.82E-10
55,250.089,1.046,-1.366,5.65E-09,1.02E-09,-9.79E-10
56,252.299,1.336,-1.164,5.92E-09,1.02E-09,-9.95E-10
57,255.165,1.375,-1.531,5.53E-09,9.76E-10,-9.43E-10
58,258.056,1.546,-1.516,4.99E-09,9.46E-10,-9.05E-10
59,261.036,1.428,-1.434,5.23E-09,9.20E-10,-8.73E-10
60,264.106,1.277,-1.641,4.62E-09,8.04E-10,-7.75E-10
61,266.784,1.58,-1.401,4.17E-09,7.45E-10,-7.23E-10
62,269.583,1.07,-1.219,5.87E-09,1.04E-09,-9.98E-10
63,271.563,1.05,-0.909,7.28E-09,1.29E-09,-1.20E-09
64,274.46,1.656,-1.847,4.15E-09,7.25E-10,-6.93E-10
65,277.746,1.766,-1.63,4.05E-09,7.21E-10,-7.03E-10
66,280.857,1.381,-1.345,5.07E-09,8.82E-10,-8.66E-10
67,283.934,1.654,-1.696,3.94E-09,6.91E-10,-6.80E-10
68,286.623,1.067,-1.036,6.06E-09,1.08E-09,-1.07E-09
69,289.16,1.522,-1.469,4.26E-09,7.50E-10,-7.26E-10
70,292.246,1.56,-1.565,4.04E-09,7.42E-10,-7.10E-10
71,295.706,1.887,-1.901,3.33E-09,6.28E-10,-6.05E-10
72,299.383,1.468,-1.789,4.16E-09,7.46E-10,-7.02E-10
73,302.398,1.876,-1.547,3.99E-09,7.01E-10,-6.66E-10
74,305.935,1.873,-1.661,3.71E-09,6.67E-10,-6.41E-10
75,309.133,1.291,-1.326,5.27E-09,9.16E-10,-8.86E-10
76,312.048,1.759,-1.623,4.10E-09,7.27E-10,-7.11E-10
77,315.487,1.78,-1.68,4.11E-09,7.53E-10,-7.21E-10
78,318.83,1.944,-1.563,3.97E-09,6.97E-10,-6.62E-10
79,323.152,1.42,-2.379,3.32E-09,5.86E-10,-5.65E-10
80,326.261,1.565,-1.689,3.71E-09,6.54E-10,-6.32E-10
81,329.378,1.775,-1.552,3.73E-09,6.51E-10,-6.26E-10
82,332.885,1.571,-1.732,3.65E-09,6.62E-10,-6.27E-10
83,336.298,1.79,-1.842,3.37E-09,5.93E-10,-5.63E-10
84,339.837,1.634,-1.75,3.57E-09,6.27E-10,-5.97E-10
85,343.135,1.509,-1.663,3.91E-09,6.92E-10,-6.48E-10
86,346.192,1.616,-1.548,3.96E-09,7.23E-10,-6.73E-10
87,349.501,1.521,-1.694,4.02E-09,7.32E-10,-6.91E-10
88,352.988,2.08,-1.965,3.31E-09,5.91E-10,-5.62E-10
89,357.086,1.809,-2.018,3.66E-09,6.44E-10,-6.11E-10
90,361.452,2.262,-2.558,2.82E-09,5.04E-10,-4.76E-10
91,365.64,1.94,-1.926,3.37E-09,6.01E-10,-5.72E-10
92,369.772,2.122,-2.192,2.92E-09,5.19E-10,-4.97E-10
93,374.145,2.029,-2.25,2.83E-09,5.09E-10,-4.90E-10
94,378.457,2.022,-2.283,2.75E-09,4.99E-10,-4.71E-10
95,382.917,1.7,-2.438,2.84E-09,5.04E-10,-4.67E-10
96,387.271,1.804,-2.654,1.71E-09,3.77E-10,-3.64E-10
97,391.034,1.881,-1.958,3.43E-09,6.09E-10,-5.85E-10
98,394.86,1.457,-1.945,4.38E-09,7.71E-10,-7.32E-10
99,398.746,2.523,-2.43,2.85E-09,5.04E-10,-4.74E-10
100,403.673,2.085,-2.403,1.98E-09,4.08E-10,-3.95E-10
101,408.059,2.471,-2.3,1.69E-09,3.55E-10,-3.42E-10
102,412.86,2.682,-2.33,2.43E-09,4.29E-10,-4.03E-10
103,418.681,2.882,-3.139,1.92E-09,3.47E-10,-3.30E-10
104,424.326,2.68,-2.764,2.16E-09,3.93E-10,-3.71E-10
105,428.733,2.931,-1.727,2.69E-09,4.78E-10,-4.46E-10
106,433.906,2.048,-2.242,3.08E-09,5.46E-10,-5.10E-10
107,439.174,2.29,-3.22,2.55E-09,4.54E-10,-4.32E-10
108,444.532,2.76,-3.068,2.48E-09,4.40E-10,-4.11E-10
109,450.29,2.573,-2.998,2.31E-09,4.21E-10,-3.97E-10
110,455.133,2.608,-2.271,2.47E-09,4.46E-10,-4.28E-10
111,460.643,2.538,-2.902,2.24E-09,3.96E-10,-3.83E-10
112,466.187,1.941,-3.005,1.57E-09,3.40E-10,-3.26E-10
113,470.968,2.565,-2.84,2.08E-09,3.82E-10,-3.63E-10
114,476.04,3.025,-2.508,1.96E-09,3.62E-10,-3.52E-10
115,481.542,3.094,-2.477,2.09E-09,3.60E-10,-3.51E-10
116,486.579,2.887,-1.943,1.57E-09,3.26E-10,-3.20E-10
117,491.633,2.332,-2.167,1.72E-09,3.49E-10,-3.41E-10
118,496.725,2.634,-2.76,1.30E-09,2.93E-10,-2.86E-10
119,501.849,3.553,-2.489,1.73E-09,3.39E-10,-3.27E-10
120,507.774,2.072,-2.372,1.88E-09,4.36E-10,-4.25E-10
121,512.363,2.32,-2.517,2.90E-09,5.16E-10,-4.94E-10
122,517.331,3.005,-2.648,2.19E-09,3.87E-10,-3.74E-10
123,522.9,2.792,-2.565,2.18E-09,3.79E-10,-3.65E-10
124,527.971,2.28,-2.278,1.77E-09,3.66E-10,-3.52E-10
125,533.712,1.785,-3.461,1.52E-09,3.21E-10,-3.08E-10
126,538.611,3.736,-3.114,1.20E-09,2.51E-10,-2.43E-10
127,544.228,2.515,-1.881,1.88E-09,4.07E-10,-3.96E-10
128,549.905,1.808,-3.162,1.59E-09,3.40E-10,-3.31E-10
129,554.482,3.141,-2.77,1.32E-09,2.76E-10,-2.69E-10
130,560.489,2.005,-2.866,1.63E-09,3.42E-10,-3.29E-10
131,564.872,2.341,-2.379,1.81E-09,3.80E-10,-3.68E-10
132,570.705,3.536,-3.492,1.36E-09,2.82E-10,-2.67E-10
133,577.128,3.493,-2.887,1.53E-09,3.16E-10,-2.96E-10
134,583.846,3.583,-3.224,1.36E-09,2.81E-10,-2.68E-10
135,590.856,3.255,-3.427,1.27E-09,2.66E-10,-2.57E-10
136,597.622,3.173,-3.512,1.25E-09,2.57E-10,-2.47E-10
137,604.192,3.289,-3.397,1.17E-09,2.45E-10,-2.39E-10
138,610.646,3.14,-3.165,1.22E-09,2.55E-10,-2.48E-10
139,617.319,2.794,-3.533,1.15E-09,2.58E-10,-2.52E-10
140,623.147,4.55,-3.034,1.03E-09,2.17E-10,-2.10E-10
141,648.218,11.059,-11.507,1.03E-09,2.32E-10,-2.32E-10
142,670.083,9.252,-10.807,1.25E-09,2.67E-10,-2.67E-10
143,692.553,19.377,-13.218,6.72E-10,1.52E-10,-1.52E-10
144,728.274,21.266,-16.344,5.63E-10,1.27E-10,-1.27E-10
145,760.582,9.016,-11.042,1.22E-09,2.55E-10,-2.55E-10
146,791.652,23.078,-22.053,4.71E-10,1.07E-10,-1.07E-10
147,831.907,20.432,-17.177,6.04E-10,1.33E-10,-1.33E-10
148,871.507,18.442,-19.167,6.68E-10,1.40E-10,-1.40E-10
149,918.154,26.956,-28.205,4.17E-10,9.22E-11,-9.22E-11
150,970.336,22.413,-25.225,4.42E-10,9.96E-11,-9.96E-11
151,1025.245,32.694,-32.496,3.09E-10,7.02E-11,-7.02E-11
152,1094.157,23.957,-36.218,3.56E-10,7.84E-11,-7.84E-11
153,1152.022,36.297,-33.908,3.13E-10,6.90E-11,-6.90E-11
154,1229.184,21.818,-40.865,3.31E-10,7.46E-11,-7.46E-11
155,1296.131,47.641,-45.13,2.31E-10,5.08E-11,-5.08E-11
156,1389.263,42.264,-45.491,2.39E-10,5.41E-11,-5.41E-11
157,1467.167,27.043,-35.639,3.51E-10,7.90E-11,-7.90E-11
158,1559.409,67.688,-65.199,1.74E-10,3.95E-11,-3.95E-11
159,1697.086,42.84,-69.989,1.95E-10,4.38E-11,-4.38E-11
160,1853.844,64.101,-113.918,9.16E-11,2.04E-11,-2.04E-11
161,2127.747,345.4814,-20.9802,4.64E-11,7.24E-12,-7.24E-12
