,t,pos_t_err,neg_t_err,flux,pos_flux_err,neg_flux_err
0,631.617,0.445,-0.411,3.01057016753326e-09,4.51001858889824e-10,-4.50806846285761e-10
1,632.501,0.428,-0.439,2.88262011808967e-09,4.57035360607222e-10,-4.56860786926655e-10
2,633.404,0.391,-0.476,2.99367811655375e-09,4.48444091777672e-10,-4.48252656661432e-10
3,634.276,0.476,-0.481,2.61049327216222e-09,4.06053712140625e-10,-4.05893038154809e-10
4,635.169,0.412,-0.417,2.9864695845168e-09,4.55826627443117e-10,-4.55639489553139e-10
5,635.941,0.322,-0.36,3.60051313236965e-09,5.39339171477147e-10,-5.39109560255034e-10
6,636.519,0.391,-0.256,3.83253012641662e-09,5.74092811456111e-10,-5.7384850579652e-10
7,637.354,0.441,-0.444,2.9136776187416e-09,4.39712063188778e-10,-4.39528319502409e-10
8,638.048,0.316,-0.254,4.24668255620004e-09,6.60512121373294e-10,-6.60255094752633e-10
9,638.786,0.481,-0.423,2.56711755404569e-09,3.91767760426456e-10,-3.91612015103244e-10
10,639.727,0.414,-0.459,2.60314436784915e-09,3.97234033041349e-10,-3.97079286631906e-10
11,640.742,0.568,-0.601,1.96271760060636e-09,3.11093200841222e-10,-3.10983507006693e-10
12,641.59,0.307,-0.28,4.30040218541576e-09,6.43930569270873e-10,-6.43681555674711e-10
13,642.315,0.369,-0.418,3.38189313652829e-09,5.2582869511476e-10,-5.25642352756736e-10
14,643.157,0.507,-0.474,2.99915835555603e-09,4.57617068614412e-10,-4.57443750487685e-10
15,644.093,0.335,-0.43,3.67747211772541e-09,5.61208870806524e-10,-5.60986592348969e-10
16,644.749,0.381,-0.32,3.98786245801136e-09,6.01815128486627e-10,-6.01564240395365e-10
17,645.462,0.406,-0.332,3.62994462430469e-09,5.43810203788599e-10,-5.43572929582392e-10
18,646.185,0.324,-0.317,3.98382329410165e-09,6.08201174812233e-10,-6.07938990880856e-10
19,646.86,0.376,-0.351,3.53392290588304e-09,5.29585606693715e-10,-5.29341548635518e-10
20,647.526,0.322,-0.29,4.17989796384664e-09,6.38303145900857e-10,-6.38015200758901e-10
21,648.155,0.351,-0.307,3.89852011437873e-09,5.84318708019832e-10,-5.84042894346476e-10
22,648.979,0.461,-0.473,2.64053486853513e-09,3.95790914315495e-10,-3.956026455926e-10
23,649.857,0.379,-0.417,3.07583731526391e-09,4.78740582199385e-10,-4.78527689284295e-10
24,650.648,0.436,-0.412,3.21975588794241e-09,4.91784024810763e-10,-4.91555442621347e-10
25,651.517,0.421,-0.433,3.50242404808556e-09,5.25066293769919e-10,-5.24811156341901e-10
26,652.346,0.467,-0.408,3.00781565568087e-09,4.86524850880125e-10,-4.86320190427641e-10
27,653.331,0.447,-0.518,2.63051777231197e-09,4.01875160422154e-10,-4.01683307621688e-10
28,654.221,0.37,-0.444,3.04997869059803e-09,4.66014909996522e-10,-4.65789661552895e-10
29,655.083,0.481,-0.492,2.5105306947955e-09,3.8363435872016e-10,-3.83447081726969e-10
30,656.021,0.412,-0.456,2.82552037889603e-09,4.23824172754455e-10,-4.23607280046045e-10
31,656.968,0.498,-0.536,2.31682791379791e-09,3.54127288716487e-10,-3.53951232901367e-10
32,658.017,0.517,-0.551,2.23282485335119e-09,3.41273897090831e-10,-3.41104607803599e-10
33,659.044,0.4,-0.511,2.60929617943193e-09,3.98741339561408e-10,-3.98546120885122e-10
34,659.875,0.47,-0.431,2.70971196724017e-09,4.14025577074951e-10,-4.1382541654723e-10
35,660.725,0.299,-0.38,3.51897272997011e-09,5.80433510666791e-10,-5.80196320364414e-10
36,661.36,0.351,-0.335,3.88304232844297e-09,5.82145556106289e-10,-5.81861331745112e-10
37,662.092,0.442,-0.381,3.38201775350155e-09,5.06975498663039e-10,-5.06731550885573e-10
38,662.973,0.328,-0.439,3.61364226178495e-09,5.5188332992464e-10,-5.51630936560548e-10
39,663.68,0.468,-0.379,3.1981611335939e-09,4.79350598964749e-10,-4.79124055968456e-10
40,664.438,0.416,-0.29,3.68545870878109e-09,5.52365931180526e-10,-5.52106585339002e-10
41,665.219,0.299,-0.365,3.85175169177817e-09,5.71023305910515e-10,-5.70750996208512e-10
42,665.941,0.267,-0.423,3.53398253549089e-09,5.29618368944099e-10,-5.29372553361018e-10
43,666.539,0.407,-0.33,3.32325755108627e-09,5.07440541483124e-10,-5.07214814683215e-10
44,667.496,0.554,-0.551,2.27834761141484e-09,3.47888346991594e-10,-3.47733725270928e-10
45,668.422,0.341,-0.372,3.6949513113832e-09,5.53824072588958e-10,-5.53561607552242e-10
46,669.126,0.36,-0.363,3.73848247656421e-09,5.60427701003839e-10,-5.60156749181142e-10
47,669.862,0.451,-0.377,3.30644875139879e-09,5.0511972803587e-10,-5.04879614044763e-10
48,670.759,0.443,-0.446,3.17927702529075e-09,4.85795140713346e-10,-4.85559310453171e-10
49,671.631,0.438,-0.429,3.28854775179485e-09,4.932854003541e-10,-4.93032704111013e-10
50,672.556,0.552,-0.487,2.63273425985183e-09,4.024538186346e-10,-4.02252606101424e-10
51,673.675,0.621,-0.567,2.18361593767301e-09,3.4021793296099e-10,-3.40052788364551e-10
52,674.609,0.313,-0.313,4.04369922290662e-09,6.18338919173414e-10,-6.18026228480182e-10
53,675.268,0.337,-0.346,3.70874932711125e-09,5.56696041656002e-10,-5.56402771246211e-10
54,676.042,0.413,-0.436,3.05997043315424e-09,4.59371395123429e-10,-4.59129291805699e-10
55,676.961,0.497,-0.506,2.62159323031953e-09,3.93624307281156e-10,-3.93416913358449e-10
56,677.996,0.435,-0.538,2.54013432122029e-09,3.81404356343897e-10,-3.81203374951495e-10
57,678.907,0.442,-0.476,2.55048316404142e-09,3.82924071316125e-10,-3.82722226259071e-10
58,679.909,0.374,-0.56,2.61543418367019e-09,4.00033023910028e-10,-3.99829912595452e-10
59,680.689,0.502,-0.406,2.85465250769196e-09,4.28513958894192e-10,-4.28288228200923e-10
60,681.75,0.498,-0.559,2.54292073258615e-09,3.88874054020802e-10,-3.88677044122102e-10
61,682.681,0.575,-0.434,2.82292923761878e-09,4.23668411637714e-10,-4.23445984000829e-10
62,683.556,0.388,-0.3,4.15364940472023e-09,6.23328651877686e-10,-6.23002535308263e-10
63,684.537,0.417,-0.592,2.75555034422669e-09,4.21273453260321e-10,-4.21061807951338e-10
64,685.447,0.46,-0.493,2.79034481297917e-09,4.34677998959236e-10,-4.34468477866939e-10
65,686.302,0.415,-0.395,3.17066515307029e-09,4.84654442289895e-10,-4.84412904996839e-10
66,687.093,0.382,-0.376,3.2647105358321e-09,4.98992437310353e-10,-4.98745155758797e-10
67,687.848,0.431,-0.374,3.07144877298336e-09,4.69439280958557e-10,-4.69206839285066e-10
68,688.761,0.35,-0.483,2.91381313895511e-09,4.53834869714137e-10,-4.53618289203141e-10
69,689.601,0.435,-0.49,2.63754883691563e-09,4.03130870993251e-10,-4.02930969505336e-10
70,690.466,0.524,-0.43,2.54128836873047e-09,3.88422472089347e-10,-3.8822971253671e-10
71,691.387,0.419,-0.397,2.79134684349706e-09,4.69745891582799e-10,-4.69553458838884e-10
72,692.277,0.659,-0.471,2.20443455085328e-09,3.36947944511532e-10,-3.36780393818978e-10
73,693.455,0.384,-0.518,2.65484418470056e-09,4.05854321689414e-10,-4.05650889080377e-10
74,694.361,0.396,-0.522,2.52558902262983e-09,3.86150803683376e-10,-3.85956152142869e-10
75,695.288,0.499,-0.531,2.2785143755182e-09,3.48425442603212e-10,-3.48249064970223e-10
76,696.232,0.43,-0.445,2.73187224961973e-09,4.17821725104967e-10,-4.17609663177766e-10
77,697.138,0.484,-0.477,2.49677797285044e-09,3.89182270481937e-10,-3.88991950146432e-10
78,698.134,0.298,-0.511,3.11437072799951e-09,4.67608376848631e-10,-4.67361906093915e-10
79,698.96,0.492,-0.528,2.37252649179124e-09,3.69835594678562e-10,-3.69654792944211e-10
80,700.111,0.568,-0.659,1.93879848094136e-09,2.9658436871049e-10,-2.96433811366765e-10
81,701.202,0.456,-0.523,2.42091423362413e-09,3.77377234886836e-10,-3.77192698158295e-10
82,702.176,0.442,-0.519,2.57374626016143e-09,3.93713549069417e-10,-3.93513639968355e-10
83,703.094,0.531,-0.476,2.46568192273057e-09,3.77185907692424e-10,-3.76994419268999e-10
84,704.027,0.621,-0.402,2.38950205306647e-09,3.65537091170641e-10,-3.65351521417939e-10
85,705.238,0.611,-0.59,2.01248743776072e-09,3.19746583836375e-10,-3.19596081761677e-10
86,706.356,0.568,-0.507,2.44849388356572e-09,3.74574353148137e-10,-3.74384259303936e-10
87,707.407,0.53,-0.483,2.68729078038595e-09,4.11118696061205e-10,-4.10910112597765e-10
88,708.391,0.394,-0.455,3.24026287554367e-09,4.86615414926134e-10,-4.86359744833236e-10
89,709.268,0.513,-0.484,2.75703192329367e-09,4.14097054545001e-10,-4.1388019027511e-10
90,710.157,0.369,-0.376,3.7019953592651e-09,5.66567322151469e-10,-5.66282713179179e-10
91,710.984,0.507,-0.458,2.91289636683066e-09,4.45858146205733e-10,-4.45635636708694e-10
92,711.937,0.311,-0.446,3.45427483021414e-09,5.19038312972213e-10,-5.18771664612792e-10
93,712.658,0.374,-0.409,3.11537647303333e-09,4.71622614272965e-10,-4.71384544317735e-10
94,713.482,0.588,-0.451,2.22168400627831e-09,3.46574626839491e-10,-3.46409636619868e-10
95,714.545,0.528,-0.475,2.4218897843713e-09,3.63899167544215e-10,-3.63711779608276e-10
96,715.789,0.928,-0.716,1.44530643474625e-09,2.25434594076294e-10,-2.2532646256398e-10
97,717.481,0.852,-0.764,1.44987651995078e-09,2.26102163802245e-10,-2.25992746453837e-10
98,718.972,0.455,-0.639,2.26922388561946e-09,3.4063433191333e-10,-3.404550581569e-10
99,719.86,0.425,-0.433,3.04137004757555e-09,4.56341691096271e-10,-4.56104244724678e-10
100,720.873,0.538,-0.588,2.37706989649527e-09,3.56510210007378e-10,-3.56329697775356e-10
101,722.044,0.505,-0.633,2.10407528399405e-09,3.21376272569471e-10,-3.212269408302e-10
102,723.084,0.582,-0.534,1.97136956400122e-09,3.01101927955041e-10,-3.0096222728479e-10
103,724.174,0.543,-0.508,2.19788997801285e-09,3.2956300493297e-10,-3.2939935759807e-10
104,725.26,0.755,-0.543,1.83011491296816e-09,2.7967549743827e-10,-2.795384357935e-10
105,726.477,0.531,-0.462,2.33972508021644e-09,3.57675209526234e-10,-3.57496100617458e-10
106,727.405,0.401,-0.396,2.84732524131193e-09,4.27320573966307e-10,-4.27096374506928e-10
107,728.306,0.495,-0.501,2.16538812094044e-09,3.50588980567025e-10,-3.50430633181377e-10
108,729.315,0.47,-0.514,2.34830908284959e-09,3.7298382043718e-10,-3.72808577597093e-10
109,730.294,0.516,-0.508,2.38381154538617e-09,3.71503652142752e-10,-3.71322206143702e-10
110,731.291,0.453,-0.481,2.72418502832256e-09,4.08938288206367e-10,-4.08722793634798e-10
111,732.228,0.503,-0.484,2.51289107657365e-09,3.9917735080774e-10,-3.98989504101063e-10
112,733.285,0.581,-0.554,2.31488243071477e-09,3.60736215758803e-10,-3.60560294449278e-10
113,734.463,0.525,-0.596,2.38453082612515e-09,3.71494457785083e-10,-3.71314665762422e-10
114,735.42,0.541,-0.432,2.56679921262007e-09,3.92331170771842e-10,-3.9213619590141e-10
115,736.3,0.317,-0.34,3.65896325660375e-09,5.42883413669476e-10,-5.42600658823437e-10
116,737.276,0.484,-0.659,2.09492676464147e-09,3.20098882926383e-10,-3.1994375940564e-10
117,738.241,0.668,-0.481,2.15682904014043e-09,3.29592351439815e-10,-3.29431214522022e-10
118,739.431,0.476,-0.522,2.4034605947335e-09,3.67399840377431e-10,-3.67216354305332e-10
119,740.401,0.6,-0.494,2.19194236327962e-09,3.25402480881099e-10,-3.25228226803109e-10
120,741.509,0.564,-0.509,2.11662107906559e-09,3.17752980625059e-10,-3.17585573876971e-10
121,742.667,0.421,-0.593,2.13555646469897e-09,3.26717578528608e-10,-3.26551891355192e-10
122,743.692,0.445,-0.605,2.13354535615591e-09,3.20386805229486e-10,-3.20218215965275e-10
123,744.465,0.316,-0.328,3.7123696619648e-09,5.57479533165515e-10,-5.57186290044608e-10
124,745.413,0.644,-0.632,2.02661452398586e-09,3.04337056035186e-10,-3.04176979628303e-10
125,746.719,0.511,-0.662,1.9783669264885e-09,3.02692655715039e-10,-3.02539354811976e-10
126,747.83,0.535,-0.6,1.91381256325587e-09,2.87355251388752e-10,-2.87203869027268e-10
127,748.829,0.377,-0.464,2.55564109712515e-09,3.90790754055867e-10,-3.90593165576741e-10
128,749.817,0.453,-0.61,2.12545377845852e-09,3.18873273947556e-10,-3.18708347934733e-10
129,750.786,0.489,-0.516,2.32200617278442e-09,3.48233808028895e-10,-3.48058117084767e-10
130,751.921,0.482,-0.646,2.02607299245539e-09,3.21444367209437e-10,-3.21305545770317e-10
131,752.886,0.398,-0.482,2.73077260591063e-09,4.17109936806871e-10,-4.16915356255616e-10
132,753.847,0.521,-0.563,2.38475177259886e-09,3.57624840855365e-10,-3.57445317937129e-10
133,754.881,0.472,-0.513,2.78829405116325e-09,4.18318120491772e-10,-4.18101677873466e-10
134,755.953,0.517,-0.6,2.36855286470287e-09,3.55512208104563e-10,-3.55325298299971e-10
135,756.983,0.551,-0.513,2.34390189862062e-09,3.58623472579554e-10,-3.58441970155167e-10
136,758.163,0.61,-0.628,1.96847902153823e-09,3.06972947455372e-10,-3.06824210654725e-10
137,759.411,0.549,-0.638,2.1254503844404e-09,3.19264502650155e-10,-3.19097836986709e-10
138,760.675,0.734,-0.716,1.63575405809491e-09,2.55090123113606e-10,-2.54966593559815e-10
139,762.246,0.429,-0.836,1.79752501023924e-09,2.75087787287724e-10,-2.74949399575225e-10
140,763.251,0.501,-0.577,2.20408967660974e-09,3.31018788890106e-10,-3.30845046728597e-10
141,764.214,0.469,-0.461,2.64610855306914e-09,4.12495072543541e-10,-4.12293478450591e-10
142,765.22,0.665,-0.537,1.99916628790927e-09,3.30079340977797e-10,-3.29935539222173e-10
143,766.407,0.63,-0.521,2.1470050892928e-09,3.22222681711928e-10,-3.22053593422949e-10
144,767.501,0.573,-0.464,2.30627806917919e-09,3.46046884286258e-10,-3.45866691385706e-10
145,768.625,0.461,-0.551,2.29243825350151e-09,3.50386785834071e-10,-3.50212938950286e-10
146,769.552,0.452,-0.466,2.40911616076395e-09,3.89822738773869e-10,-3.89652247118e-10
147,770.583,0.451,-0.579,2.36557601140849e-09,3.54738690228209e-10,-3.54560994615379e-10
148,771.462,0.428,-0.428,2.92572432684492e-09,4.3867349675955e-10,-4.38456855355964e-10
149,772.476,0.412,-0.586,2.30562486084532e-09,3.58907149474963e-10,-3.58744752976183e-10
150,773.261,0.451,-0.372,2.75518104146095e-09,4.13117781426517e-10,-4.12913045444967e-10
151,774.152,0.412,-0.44,2.61340874841395e-09,3.99352240252834e-10,-3.9915745594986e-10
152,775.111,0.587,-0.547,1.91267928701429e-09,3.03653413728001e-10,-3.03513453241936e-10
153,776.232,0.443,-0.535,2.31089044360349e-09,3.60059267875759e-10,-3.59884359696458e-10
154,777.29,0.608,-0.614,1.96608976563762e-09,3.00693221121853e-10,-3.00540626635685e-10
155,778.508,0.431,-0.61,2.37370818387911e-09,3.56286853027344e-10,-3.56099409021427e-10
156,779.587,0.657,-0.649,1.76490343233182e-09,2.69849704562321e-10,-2.69713598771e-10
157,780.846,0.649,-0.602,1.6601538646352e-09,2.68703211171581e-10,-2.68583404935942e-10
158,782.194,0.508,-0.699,1.84658702445443e-09,2.87595577458097e-10,-2.87458847187856e-10
159,783.329,0.547,-0.628,2.01698837490675e-09,3.02549395884092e-10,-3.02394403745287e-10
160,784.43,0.634,-0.554,2.04440369824654e-09,3.0668292445064e-10,-3.06525119692356e-10
161,785.524,0.59,-0.46,2.37066174540888e-09,3.55648749943422e-10,-3.55465080672555e-10
162,786.693,0.539,-0.579,2.19088669822274e-09,3.28702383067574e-10,-3.28531942919428e-10
163,787.739,0.585,-0.508,2.10477997116601e-09,3.27850592758198e-10,-3.27693414371422e-10
164,788.925,0.572,-0.601,1.97199348951101e-09,2.95742199546579e-10,-2.95593014594976e-10
165,789.951,0.403,-0.454,2.59393696446634e-09,4.03803704748765e-10,-4.03620104205591e-10
166,790.786,0.471,-0.432,2.51515422100096e-09,3.77002283833012e-10,-3.7682263709066e-10
167,791.695,0.421,-0.437,2.44849812733569e-09,4.03683714773163e-10,-4.03530162991446e-10
168,792.528,0.445,-0.413,2.62359436778838e-09,3.93106078219704e-10,-3.92929666747065e-10
169,793.652,0.55,-0.68,1.85824005790203e-09,2.78467826262463e-10,-2.78339898140207e-10
170,794.982,0.721,-0.78,1.51439291595673e-09,2.35693455333109e-10,-2.35589656532088e-10
171,796.374,0.522,-0.67,1.95591439434904e-09,2.93236506588368e-10,-2.93093158527333e-10
172,797.516,0.589,-0.621,1.83619951851039e-09,2.8588664128719e-10,-2.85754510819502e-10
173,798.579,0.408,-0.474,2.54043142822575e-09,3.88169299713381e-10,-3.87981281713349e-10
174,799.483,0.397,-0.496,2.58079469887394e-09,3.87059388768155e-10,-3.86863453388152e-10
175,800.379,0.637,-0.498,2.06110056350208e-09,3.09139713050732e-10,-3.08982297146226e-10
176,801.563,0.632,-0.547,2.16756432679654e-09,3.251404904121e-10,-3.24973776573807e-10
177,802.652,0.392,-0.457,3.17557178784237e-09,4.94598621724884e-10,-4.94362808787842e-10
178,803.571,0.482,-0.526,2.74255482403235e-09,4.06930293009984e-10,-4.06717761677585e-10
179,804.59,0.385,-0.537,2.73304550699264e-09,4.25598224805882e-10,-4.25398084446321e-10
180,805.557,0.5,-0.582,2.30633374432735e-09,3.59114485370427e-10,-3.58947085978523e-10
181,806.471,0.5,-0.415,2.70045829317322e-09,4.28537009103922e-10,-4.28346522722245e-10
182,807.306,0.371,-0.336,3.55716062818361e-09,5.43430103469863e-10,-5.43171354351194e-10
183,808.058,0.43,-0.381,3.08261531604554e-09,4.62226456178822e-10,-4.61996711279365e-10
184,809.003,0.503,-0.514,2.45042206760967e-09,3.74415280079333e-10,-3.74233949409669e-10
185,809.851,0.455,-0.345,3.20546770212235e-09,4.89845015595153e-10,-4.89605195851696e-10
186,810.874,0.479,-0.568,2.42370451323901e-09,3.70428301527914e-10,-3.70245221804303e-10
187,811.648,0.324,-0.295,3.66725524093481e-09,6.17165734645617e-10,-6.16912224668402e-10
188,812.437,0.497,-0.466,2.27642209960647e-09,3.90804736754561e-10,-3.90649910643266e-10
189,813.416,0.587,-0.482,2.28815551628499e-09,3.43259216008589e-10,-3.43082247440326e-10
190,814.396,0.358,-0.392,3.19985064106846e-09,4.89007115362295e-10,-4.88766743201133e-10
191,815.374,0.489,-0.62,2.07140350885323e-09,3.22545154700721e-10,-3.2239435509457e-10
192,816.461,0.464,-0.598,2.12604637545508e-09,3.24810121104223e-10,-3.24654783950349e-10
193,817.486,0.537,-0.561,2.09549495636658e-09,3.1417508879446e-10,-3.14020839751407e-10
194,818.585,0.501,-0.563,2.10968821453958e-09,3.28470143333814e-10,-3.28318195275989e-10
195,819.516,0.394,-0.43,2.98534235338777e-09,4.47728564798562e-10,-4.47502054709733e-10
196,820.318,0.405,-0.408,3.04573302057823e-09,4.92860498959922e-10,-4.92643981322531e-10
197,821.107,0.357,-0.384,3.691997847357e-09,5.53862272273645e-10,-5.53576528874217e-10
198,821.938,0.495,-0.475,2.88546344944745e-09,4.32944089829035e-10,-4.32718814200045e-10
199,823.049,0.589,-0.616,2.27848864272308e-09,3.41899715566913e-10,-3.41721185501174e-10
200,824.248,0.463,-0.61,2.26750478805697e-09,3.40247240450858e-10,-3.40069641830731e-10
201,825.033,0.425,-0.322,3.00868564875442e-09,4.51460031510634e-10,-4.51224504163369e-10
202,825.901,0.427,-0.443,2.54099784704485e-09,4.1937935742528e-10,-4.19198609497271e-10
203,826.794,0.439,-0.466,2.79213888871214e-09,4.18956618796745e-10,-4.18738247173411e-10
204,827.758,0.493,-0.525,2.39419673710906e-09,3.59209655703306e-10,-3.59023310014518e-10
205,828.781,0.48,-0.53,2.26927691535981e-09,3.4038120455336e-10,-3.40207277309167e-10
206,829.71,0.489,-0.448,2.58665456319757e-09,4.05561067158891e-10,-4.05375032608011e-10
207,830.566,0.467,-0.367,3.37946402501248e-09,5.06685392565031e-10,-5.0643629438075e-10
208,831.344,0.456,-0.311,3.83260337590086e-09,5.96536738376124e-10,-5.96271147615518e-10
209,832.471,0.676,-0.671,1.8757154791859e-09,2.97549471223216e-10,-2.97423463470395e-10
210,833.589,0.52,-0.442,2.36094630419356e-09,3.6068023314706e-10,-3.60508730795851e-10
211,834.659,0.511,-0.549,2.13452079808487e-09,3.2020705129915e-10,-3.20042259433995e-10
212,835.739,0.701,-0.569,1.77534728781378e-09,2.7149061938066e-10,-2.71353244419009e-10
213,836.879,0.369,-0.439,3.15275359943375e-09,4.82423219446414e-10,-4.82179628626354e-10
214,837.686,0.404,-0.438,3.43863093796173e-09,5.16595380207557e-10,-5.1632738729062e-10
215,838.625,0.567,-0.536,2.76285984995258e-09,4.39199989760032e-10,-4.38996956709634e-10
216,839.581,0.472,-0.389,3.16369504734803e-09,4.93461415704807e-10,-4.93224617117634e-10
217,840.513,0.472,-0.46,2.65824514879824e-09,3.99387634386799e-10,-3.99181237550302e-10
218,841.473,0.538,-0.487,2.42091483444143e-09,3.63735861057737e-10,-3.63548080038531e-10
219,842.495,0.488,-0.485,2.61249973697039e-09,3.99901703752652e-10,-3.99702722423468e-10
220,843.391,0.409,-0.408,3.11353392017065e-09,4.67723477141923e-10,-4.67480077021798e-10
221,844.384,0.529,-0.583,2.19481516231875e-09,3.29655952377504e-10,-3.29483337183996e-10
222,845.396,0.528,-0.484,2.56516767610288e-09,3.85214474750507e-10,-3.85011915105166e-10
223,846.468,0.454,-0.544,2.97305308778493e-09,4.54794874043739e-10,-4.54563928857316e-10
224,847.423,0.676,-0.5,2.80722274833072e-09,4.21424551179507e-10,-4.21202455194144e-10
225,848.532,0.506,-0.433,3.00401349881297e-09,4.6814086366595e-10,-4.67912319650854e-10
226,849.556,0.491,-0.518,2.54359835671434e-09,3.8894155127969e-10,-3.88744865193653e-10
